Date,Low,Open,Volume,High,Close,Adjusted Close
04-10-1989,2.4375,2.46875,20636000,2.546875,2.5,1.7905151844024658
05-10-1989,2.5,2.515625,6453600,2.625,2.578125,1.8464674949645996
06-10-1989,2.546875,2.59375,2755200,2.625,2.546875,1.8240861892700195
09-10-1989,2.5,2.546875,1084000,2.546875,2.546875,1.8240861892700195
10-10-1989,2.5,2.5625,1493600,2.5625,2.53125,1.8128950595855713
11-10-1989,2.46875,2.5,1260000,2.515625,2.515625,1.8017048835754395
12-10-1989,2.515625,2.515625,602400,2.546875,2.53125,1.8128950595855713
13-10-1989,2.46875,2.53125,3970400,2.53125,2.484375,1.779322862625122
16-10-1989,2.375,2.375,3924800,2.46875,2.46875,1.768133282661438
17-10-1989,2.4375,2.4375,1843200,2.5,2.5,1.7905151844024658
18-10-1989,2.484375,2.5,1128000,2.5625,2.546875,1.8240861892700195
19-10-1989,2.53125,2.53125,1040000,2.546875,2.546875,1.8240861892700195
20-10-1989,2.515625,2.53125,237600,2.53125,2.53125,1.8128950595855713
23-10-1989,2.546875,2.546875,87200,2.5625,2.546875,1.8240861892700195
24-10-1989,2.53125,2.546875,689600,2.5625,2.5625,1.8352771997451782
25-10-1989,2.515625,2.546875,608000,2.578125,2.546875,1.8240861892700195
26-10-1989,2.546875,2.546875,228800,2.5625,2.546875,1.8240861892700195
27-10-1989,2.5,2.546875,456000,2.546875,2.515625,1.8017048835754395
30-10-1989,2.5,2.515625,250400,2.515625,2.5,1.7905151844024658
31-10-1989,2.5,2.5,424800,2.515625,2.5,1.7905151844024658
01-11-1989,2.515625,2.515625,715200,2.5625,2.5625,1.8352771997451782
02-11-1989,2.59375,2.59375,130400,2.640625,2.640625,1.8912301063537598
03-11-1989,2.625,2.625,1118400,2.75,2.734375,1.9583758115768433
06-11-1989,2.578125,2.71875,264800,2.71875,2.578125,1.8464674949645996
07-11-1989,2.5,2.546875,727200,2.6875,2.6875,1.9248020648956299
08-11-1989,2.671875,2.6875,236800,2.71875,2.71875,1.947184681892395
09-11-1989,2.6875,2.71875,60800,2.71875,2.6875,1.9248020648956299
10-11-1989,2.546875,2.6875,210400,2.6875,2.5625,1.8352771997451782
13-11-1989,2.515625,2.5625,92800,2.5625,2.546875,1.8240861892700195
14-11-1989,2.484375,2.578125,428000,2.578125,2.53125,1.8128950595855713
15-11-1989,2.53125,2.546875,176000,2.578125,2.5625,1.8352771997451782
16-11-1989,2.546875,2.546875,301600,2.59375,2.59375,1.8576583862304688
17-11-1989,2.59375,2.59375,249600,2.640625,2.640625,1.8912301063537598
20-11-1989,2.609375,2.65625,43200,2.65625,2.609375,1.868848204612732
21-11-1989,2.59375,2.59375,108800,2.671875,2.671875,1.9136110544204712
22-11-1989,2.6875,2.6875,255200,2.75,2.75,1.9695661067962646
24-11-1989,2.78125,2.78125,572000,2.953125,2.921875,2.092663288116455
27-11-1989,2.859375,2.90625,253600,2.9375,2.875,2.0590908527374268
28-11-1989,2.828125,2.875,560000,2.875,2.828125,2.0255184173583984
29-11-1989,2.78125,2.8125,60800,2.8125,2.796875,2.0031373500823975
30-11-1989,2.8125,2.8125,712800,2.90625,2.890625,2.0702810287475586
01-12-1989,2.890625,2.890625,356800,2.953125,2.90625,2.081472635269165
04-12-1989,2.875,2.9375,172000,2.984375,2.984375,2.1374263763427734
05-12-1989,2.90625,2.953125,93600,2.984375,2.90625,2.081472635269165
06-12-1989,2.90625,2.90625,668800,3.0,2.984375,2.1374263763427734
07-12-1989,2.921875,2.984375,215200,2.984375,2.953125,2.115044116973877
08-12-1989,2.921875,2.921875,122400,2.953125,2.953125,2.115044116973877
11-12-1989,2.9375,2.96875,306400,3.03125,3.0,2.148617744445801
12-12-1989,2.984375,3.015625,1119200,3.03125,3.015625,2.1598081588745117
13-12-1989,2.984375,3.0,400000,3.15625,3.15625,2.260524034500122
14-12-1989,3.109375,3.125,391200,3.140625,3.125,2.238142251968384
15-12-1989,3.09375,3.140625,155200,3.140625,3.109375,2.2269535064697266
18-12-1989,3.03125,3.078125,224000,3.125,3.03125,2.170999765396118
19-12-1989,3.03125,3.03125,215200,3.0625,3.0625,2.193380117416382
20-12-1989,3.046875,3.0625,166400,3.109375,3.078125,2.204570770263672
21-12-1989,3.0625,3.109375,174400,3.125,3.109375,2.2269535064697266
22-12-1989,3.109375,3.125,173600,3.125,3.125,2.238142251968384
26-12-1989,3.078125,3.109375,97600,3.109375,3.078125,2.204570770263672
27-12-1989,3.03125,3.0625,144000,3.0625,3.03125,2.170999765396118
28-12-1989,3.03125,3.046875,11200,3.046875,3.03125,2.170999765396118
29-12-1989,3.015625,3.03125,219200,3.15625,3.15625,2.260524034500122
02-01-1990,3.03125,3.125,194400,3.125,3.046875,2.1821892261505127
03-01-1990,3.03125,3.0625,361600,3.0625,3.03125,2.170999765396118
04-01-1990,2.953125,3.03125,166400,3.0625,2.953125,2.115044116973877
05-01-1990,2.859375,2.9375,100800,2.9375,2.90625,2.081472635269165
08-01-1990,2.84375,2.875,880800,2.890625,2.859375,2.0478997230529785
09-01-1990,2.8125,2.828125,282400,2.84375,2.8125,2.014328956604004
10-01-1990,2.6875,2.765625,784000,2.765625,2.703125,1.9403045177459717
11-01-1990,2.703125,2.71875,347200,2.765625,2.75,1.9739526510238647
12-01-1990,2.6875,2.71875,159200,2.734375,2.71875,1.9515210390090942
15-01-1990,2.71875,2.734375,25600,2.734375,2.71875,1.9515210390090942
16-01-1990,2.625,2.6875,172800,2.703125,2.703125,1.9403045177459717
17-01-1990,2.71875,2.71875,216000,2.8125,2.71875,1.9515210390090942
18-01-1990,2.6875,2.6875,157600,2.71875,2.703125,1.9403045177459717
19-01-1990,2.734375,2.734375,8800,2.75,2.75,1.9739526510238647
22-01-1990,2.71875,2.734375,56800,2.75,2.734375,1.9627374410629272
23-01-1990,2.734375,2.765625,101600,2.765625,2.75,1.9739526510238647
24-01-1990,2.6875,2.734375,26400,2.734375,2.6875,1.9290889501571655
25-01-1990,2.671875,2.6875,249600,2.71875,2.71875,1.9515210390090942
26-01-1990,2.671875,2.703125,45600,2.71875,2.671875,1.9178729057312012
29-01-1990,2.625,2.6875,444000,2.6875,2.640625,1.895442008972168
30-01-1990,2.578125,2.625,548000,2.65625,2.65625,1.9066590070724487
31-01-1990,2.6875,2.6875,757600,2.859375,2.859375,2.0524611473083496
01-02-1990,2.84375,2.875,149600,2.875,2.859375,2.0524611473083496
02-02-1990,2.875,2.875,720000,2.90625,2.875,2.0636770725250244
05-02-1990,2.875,2.90625,163200,2.90625,2.875,2.0636770725250244
06-02-1990,2.84375,2.875,99200,2.90625,2.890625,2.074892282485962
07-02-1990,2.90625,2.90625,32800,2.9375,2.9375,2.108538866043091
08-02-1990,2.96875,2.96875,346400,3.125,3.046875,2.187049388885498
09-02-1990,2.96875,3.078125,179200,3.125,3.0,2.1534032821655273
12-02-1990,2.90625,3.0,28000,3.0,2.90625,2.086108684539795
13-02-1990,2.9375,2.9375,26400,2.953125,2.953125,2.119755268096924
14-02-1990,2.9375,2.953125,32800,2.96875,2.9375,2.108538866043091
15-02-1990,2.953125,2.953125,152000,2.96875,2.953125,2.119755268096924
16-02-1990,2.96875,2.96875,32000,2.96875,2.96875,2.1309711933135986
20-02-1990,2.953125,2.984375,23200,2.984375,2.953125,2.119755268096924
21-02-1990,2.90625,2.953125,553600,2.953125,2.90625,2.086108684539795
22-02-1990,2.84375,2.90625,148000,2.90625,2.84375,2.0412464141845703
23-02-1990,2.6875,2.78125,575200,2.78125,2.71875,1.9515210390090942
26-02-1990,2.734375,2.734375,477600,2.75,2.75,1.9739526510238647
27-02-1990,2.765625,2.765625,357600,2.84375,2.84375,2.0412464141845703
28-02-1990,2.796875,2.8125,145600,2.828125,2.796875,2.007598400115967
01-03-1990,2.75,2.796875,225600,2.796875,2.75,1.9739526510238647
02-03-1990,2.6875,2.75,931200,2.78125,2.703125,1.9403045177459717
05-03-1990,2.65625,2.671875,146400,2.703125,2.671875,1.9178729057312012
06-03-1990,2.625,2.671875,258400,2.734375,2.734375,1.9627374410629272
07-03-1990,2.703125,2.734375,174400,2.75,2.75,1.9739526510238647
08-03-1990,2.734375,2.75,146400,2.796875,2.78125,1.996383547782898
09-03-1990,2.734375,2.75,194400,2.78125,2.734375,1.9627374410629272
12-03-1990,2.625,2.703125,1072800,2.71875,2.6875,1.9290889501571655
13-03-1990,2.671875,2.671875,662400,2.6875,2.6875,1.9290889501571655
14-03-1990,2.671875,2.671875,298400,2.765625,2.765625,1.985168218612671
15-03-1990,2.71875,2.78125,192000,2.796875,2.71875,1.9515210390090942
16-03-1990,2.734375,2.75,271200,2.78125,2.78125,1.996383547782898
19-03-1990,2.75,2.75,476000,2.765625,2.765625,1.985168218612671
20-03-1990,2.75,2.75,898400,2.90625,2.796875,2.007598400115967
21-03-1990,2.796875,2.796875,102400,2.8125,2.796875,2.007598400115967
22-03-1990,2.75,2.75,177600,2.765625,2.765625,1.985168218612671
23-03-1990,2.796875,2.796875,320000,2.796875,2.796875,2.007598400115967
26-03-1990,2.75,2.78125,37600,2.78125,2.75,1.9739526510238647
27-03-1990,2.734375,2.734375,24000,2.75,2.75,1.9739526510238647
28-03-1990,2.84375,2.84375,706400,2.9375,2.921875,2.0973238945007324
29-03-1990,2.890625,2.921875,361600,2.9375,2.90625,2.086108684539795
30-03-1990,2.921875,2.921875,161600,2.921875,2.921875,2.0973238945007324
02-04-1990,2.84375,2.921875,184800,2.921875,2.875,2.0636770725250244
03-04-1990,2.875,2.875,358400,3.03125,2.984375,2.1421866416931152
04-04-1990,2.90625,2.984375,364800,2.984375,2.90625,2.086108684539795
05-04-1990,2.90625,2.9375,373600,2.953125,2.90625,2.086108684539795
06-04-1990,2.78125,2.921875,810400,2.921875,2.78125,1.996383547782898
09-04-1990,2.734375,2.734375,336800,2.765625,2.734375,1.9671571254730225
10-04-1990,2.71875,2.75,426400,2.8125,2.765625,1.989638090133667
11-04-1990,2.71875,2.78125,234400,2.8125,2.734375,1.9671571254730225
12-04-1990,2.59375,2.71875,456000,2.734375,2.625,1.8884692192077637
16-04-1990,2.640625,2.640625,273600,2.734375,2.703125,1.9446752071380615
17-04-1990,2.703125,2.71875,16800,2.71875,2.71875,1.9559165239334106
18-04-1990,2.6875,2.6875,333600,2.75,2.71875,1.9559165239334106
19-04-1990,2.671875,2.71875,207200,2.71875,2.6875,1.933434009552002
20-04-1990,2.65625,2.671875,168800,2.6875,2.671875,1.9221915006637573
23-04-1990,2.625,2.65625,173600,2.65625,2.625,1.8884692192077637
24-04-1990,2.625,2.625,458400,2.671875,2.625,1.8884692192077637
25-04-1990,2.640625,2.65625,104000,2.671875,2.65625,1.9109512567520142
26-04-1990,2.625,2.625,461600,2.6875,2.6875,1.933434009552002
27-04-1990,2.6875,2.6875,133600,2.703125,2.703125,1.9446752071380615
30-04-1990,2.6875,2.703125,68800,2.71875,2.71875,1.9559165239334106
01-05-1990,2.6875,2.71875,732800,2.828125,2.8125,2.023362874984741
02-05-1990,2.765625,2.78125,575200,2.828125,2.8125,2.023362874984741
03-05-1990,2.828125,2.84375,105600,2.859375,2.828125,2.0346028804779053
04-05-1990,2.78125,2.84375,279200,2.84375,2.78125,2.000880002975464
07-05-1990,2.78125,2.78125,32800,2.84375,2.84375,2.0458450317382812
08-05-1990,2.828125,2.84375,48800,2.84375,2.828125,2.0346028804779053
09-05-1990,2.796875,2.84375,1232800,2.859375,2.796875,2.012120008468628
10-05-1990,2.796875,2.8125,428000,2.84375,2.796875,2.012120008468628
11-05-1990,2.828125,2.828125,172000,2.875,2.875,2.0683248043060303
14-05-1990,2.75,2.890625,2418400,2.890625,2.75,1.9783982038497925
15-05-1990,2.75,2.78125,5804800,2.828125,2.8125,2.023362874984741
16-05-1990,2.8125,2.8125,367200,2.96875,2.90625,2.0908074378967285
17-05-1990,2.921875,2.921875,196000,2.953125,2.953125,2.124528169631958
18-05-1990,2.96875,2.96875,181600,3.0,3.0,2.1582517623901367
21-05-1990,2.921875,2.96875,74400,2.96875,2.953125,2.124528169631958
22-05-1990,2.96875,2.984375,40800,2.984375,2.96875,2.1357710361480713
23-05-1990,2.90625,2.96875,30400,2.96875,2.90625,2.0908074378967285
24-05-1990,2.75,2.921875,483200,2.921875,2.8125,2.023362874984741
25-05-1990,2.75,2.8125,817600,2.875,2.875,2.0683248043060303
29-05-1990,2.890625,2.890625,60800,2.90625,2.90625,2.0908074378967285
30-05-1990,2.921875,2.9375,129600,2.984375,2.96875,2.1357710361480713
31-05-1990,2.90625,2.9375,143200,2.984375,2.96875,2.1357710361480713
01-06-1990,2.953125,2.96875,47200,2.984375,2.96875,2.1357710361480713
04-06-1990,2.90625,2.9375,68000,2.984375,2.984375,2.1470115184783936
05-06-1990,2.796875,2.984375,1125600,3.0,2.890625,2.0795652866363525
06-06-1990,2.875,2.890625,44000,2.90625,2.875,2.0683248043060303
07-06-1990,2.859375,2.890625,212800,2.890625,2.859375,2.057084560394287
08-06-1990,2.8125,2.875,405600,2.875,2.84375,2.0458450317382812
11-06-1990,2.84375,2.859375,48800,2.890625,2.875,2.0683248043060303
12-06-1990,2.859375,2.90625,196000,3.0,2.984375,2.1470115184783936
13-06-1990,2.96875,2.96875,208000,3.09375,2.96875,2.1357710361480713
14-06-1990,2.9375,2.953125,20800,2.984375,2.984375,2.1470115184783936
15-06-1990,2.921875,2.984375,158400,2.984375,2.96875,2.1357710361480713
18-06-1990,2.96875,2.96875,1600,2.96875,2.96875,2.1357710361480713
19-06-1990,2.875,2.9375,174400,2.9375,2.921875,2.1020474433898926
20-06-1990,2.90625,2.953125,127200,2.953125,2.9375,2.113288640975952
21-06-1990,2.921875,2.921875,6400,2.9375,2.9375,2.113288640975952
22-06-1990,2.921875,2.9375,356800,2.953125,2.953125,2.124528169631958
25-06-1990,2.90625,2.921875,24800,2.9375,2.921875,2.1020474433898926
26-06-1990,2.859375,2.90625,207200,2.921875,2.921875,2.1020474433898926
27-06-1990,2.921875,2.921875,13600,2.9375,2.921875,2.1020474433898926
28-06-1990,2.9375,2.9375,157600,2.96875,2.96875,2.1357710361480713
29-06-1990,2.953125,2.984375,327200,2.984375,2.96875,2.1357710361480713
02-07-1990,2.875,2.953125,322400,2.953125,2.90625,2.0908074378967285
03-07-1990,2.875,2.9375,308800,2.9375,2.875,2.0683248043060303
05-07-1990,2.8125,2.84375,596800,2.84375,2.828125,2.0346028804779053
06-07-1990,2.78125,2.78125,82400,2.796875,2.796875,2.012120008468628
09-07-1990,2.75,2.796875,724800,2.8125,2.78125,2.000880002975464
10-07-1990,2.765625,2.78125,1073600,2.78125,2.78125,2.0053865909576416
11-07-1990,2.78125,2.78125,776000,2.8125,2.796875,2.0166523456573486
12-07-1990,2.796875,2.796875,1208800,2.90625,2.875,2.0729832649230957
13-07-1990,2.90625,2.90625,568000,3.0,2.96875,2.1405818462371826
16-07-1990,2.96875,2.984375,680800,3.0,2.96875,2.1405818462371826
17-07-1990,2.921875,2.96875,102400,2.96875,2.921875,2.106781482696533
18-07-1990,2.84375,2.921875,348000,2.921875,2.84375,2.0504519939422607
19-07-1990,2.796875,2.8125,465600,2.875,2.875,2.0729832649230957
20-07-1990,2.890625,2.890625,51200,2.90625,2.890625,2.084247589111328
23-07-1990,2.859375,2.875,349600,2.9375,2.9375,2.118048667907715
24-07-1990,2.90625,2.90625,353600,3.015625,2.984375,2.1518478393554688
25-07-1990,3.0,3.015625,52000,3.03125,3.03125,2.1856460571289062
26-07-1990,3.03125,3.0625,80000,3.0625,3.0625,2.208179473876953
27-07-1990,2.984375,3.03125,75200,3.0625,2.984375,2.1518478393554688
30-07-1990,2.984375,3.0,160800,3.0,3.0,2.163113594055176
31-07-1990,2.953125,2.953125,175200,3.015625,3.0,2.163113594055176
01-08-1990,3.0,3.03125,134400,3.0625,3.015625,2.174379825592041
02-08-1990,3.03125,3.125,1056800,3.171875,3.171875,2.2870407104492188
03-08-1990,3.109375,3.15625,1272000,3.265625,3.203125,2.3095738887786865
06-08-1990,3.125,3.25,247200,3.265625,3.125,2.2532434463500977
07-08-1990,3.125,3.125,148800,3.140625,3.140625,2.2645084857940674
08-08-1990,3.09375,3.125,170400,3.140625,3.09375,2.2307114601135254
09-08-1990,3.0625,3.09375,296000,3.09375,3.09375,2.2307114601135254
10-08-1990,3.09375,3.09375,299200,3.109375,3.09375,2.2307114601135254
13-08-1990,3.078125,3.109375,56800,3.125,3.078125,2.219442844390869
14-08-1990,3.0625,3.109375,49600,3.109375,3.0625,2.208179473876953
15-08-1990,3.0625,3.0625,196000,3.15625,3.125,2.2532434463500977
16-08-1990,3.078125,3.109375,140000,3.125,3.109375,2.2419776916503906
17-08-1990,3.125,3.140625,201600,3.1875,3.140625,2.2645084857940674
20-08-1990,3.046875,3.15625,239200,3.15625,3.046875,2.1969118118286133
21-08-1990,3.0625,3.0625,452000,3.09375,3.078125,2.219442844390869
22-08-1990,3.015625,3.0625,333600,3.09375,3.015625,2.174379825592041
23-08-1990,2.9375,3.0,364000,3.0,2.96875,2.1405818462371826
24-08-1990,2.921875,2.921875,326400,3.0,3.0,2.163113594055176
27-08-1990,2.953125,3.0,88000,3.0,2.953125,2.1293132305145264
28-08-1990,2.953125,2.953125,8000,2.984375,2.984375,2.1518478393554688
29-08-1990,2.9375,3.015625,140800,3.015625,2.9375,2.118048667907715
30-08-1990,2.90625,2.953125,65600,2.984375,2.984375,2.1518478393554688
31-08-1990,2.890625,2.953125,256800,2.984375,2.921875,2.106781482696533
04-09-1990,2.9375,2.9375,20000,2.953125,2.953125,2.1293132305145264
05-09-1990,2.953125,2.953125,223200,3.1875,3.171875,2.2870407104492188
06-09-1990,3.1875,3.203125,317600,3.296875,3.296875,2.377171039581299
07-09-1990,3.296875,3.296875,160800,3.359375,3.359375,2.4222373962402344
10-09-1990,3.328125,3.328125,1408800,3.390625,3.359375,2.4222373962402344
11-09-1990,3.1875,3.375,963200,3.375,3.3125,2.3884363174438477
12-09-1990,3.265625,3.34375,336000,3.34375,3.3125,2.3884363174438477
13-09-1990,3.25,3.3125,405600,3.328125,3.25,2.3433728218078613
14-09-1990,3.25,3.25,209600,3.390625,3.390625,2.4447691440582275
17-09-1990,3.375,3.390625,1116000,3.46875,3.46875,2.5010998249053955
18-09-1990,3.46875,3.46875,776800,3.765625,3.671875,2.6475613117218018
19-09-1990,3.65625,3.6875,1624800,3.6875,3.65625,2.636293649673462
20-09-1990,3.53125,3.65625,432000,3.65625,3.53125,2.54616379737854
21-09-1990,3.46875,3.484375,521600,3.5625,3.5625,2.5686986446380615
24-09-1990,3.484375,3.5625,112800,3.5625,3.515625,2.534898042678833
25-09-1990,3.5,3.5,221600,3.515625,3.515625,2.534898042678833
26-09-1990,3.453125,3.515625,55200,3.515625,3.46875,2.5010998249053955
27-09-1990,3.375,3.4375,72800,3.453125,3.375,2.433501958847046
28-09-1990,3.28125,3.375,163200,3.375,3.34375,2.410970449447632
01-10-1990,3.296875,3.328125,455200,3.390625,3.34375,2.410970449447632
02-10-1990,3.328125,3.359375,72000,3.359375,3.359375,2.4222373962402344
03-10-1990,3.3125,3.34375,26400,3.34375,3.34375,2.410970449447632
04-10-1990,3.25,3.34375,313600,3.34375,3.25,2.3433728218078613
05-10-1990,3.1875,3.234375,550400,3.296875,3.1875,2.298307180404663
08-10-1990,3.1875,3.203125,411200,3.234375,3.1875,2.298307180404663
09-10-1990,3.203125,3.203125,298400,3.375,3.34375,2.415707588195801
10-10-1990,3.21875,3.34375,200000,3.34375,3.234375,2.3366880416870117
11-10-1990,3.203125,3.25,34400,3.25,3.21875,2.3254005908966064
12-10-1990,3.171875,3.1875,89600,3.203125,3.203125,2.3141112327575684
15-10-1990,3.15625,3.203125,36800,3.203125,3.15625,2.2802469730377197
16-10-1990,3.109375,3.140625,153600,3.15625,3.109375,2.2463815212249756
17-10-1990,3.09375,3.109375,11200,3.125,3.125,2.257669687271118
18-10-1990,3.109375,3.109375,113600,3.125,3.109375,2.2463815212249756
19-10-1990,3.078125,3.109375,36800,3.109375,3.09375,2.235092878341675
22-10-1990,3.0625,3.109375,68000,3.109375,3.0625,2.2125167846679688
23-10-1990,3.0625,3.0625,17600,3.109375,3.109375,2.2463815212249756
24-10-1990,3.125,3.125,120000,3.15625,3.15625,2.2802469730377197
25-10-1990,3.1875,3.1875,112800,3.328125,3.328125,2.4044177532196045
26-10-1990,3.3125,3.3125,22400,3.359375,3.359375,2.4269962310791016
29-10-1990,3.359375,3.375,16000,3.375,3.359375,2.4269962310791016
30-10-1990,3.28125,3.34375,29600,3.359375,3.296875,2.381840944290161
31-10-1990,3.3125,3.3125,366400,3.453125,3.375,2.4382822513580322
01-11-1990,3.359375,3.375,163200,3.375,3.375,2.4382822513580322
02-11-1990,3.375,3.375,469600,3.53125,3.5,2.528590440750122
05-11-1990,3.46875,3.53125,426400,3.546875,3.46875,2.5060129165649414
06-11-1990,3.421875,3.484375,8800,3.484375,3.421875,2.4721481800079346
07-11-1990,3.375,3.421875,148000,3.421875,3.375,2.4382822513580322
08-11-1990,3.34375,3.34375,37600,3.390625,3.390625,2.4495718479156494
09-11-1990,3.375,3.375,397600,3.4375,3.421875,2.4721481800079346
12-11-1990,3.328125,3.390625,76800,3.390625,3.328125,2.4044177532196045
13-11-1990,3.109375,3.15625,208000,3.15625,3.109375,2.2463815212249756
14-11-1990,3.109375,3.125,75200,3.1875,3.1875,2.3028228282928467
15-11-1990,3.125,3.15625,45600,3.171875,3.140625,2.268958806991577
16-11-1990,3.09375,3.140625,300800,3.15625,3.15625,2.2802469730377197
19-11-1990,2.984375,3.15625,456800,3.15625,2.984375,2.1560747623443604
20-11-1990,2.84375,2.96875,329600,2.96875,2.921875,2.1109206676483154
21-11-1990,2.890625,2.90625,32800,2.96875,2.96875,2.144787549972534
23-11-1990,2.96875,2.96875,18400,2.984375,2.96875,2.144787549972534
26-11-1990,2.96875,2.984375,40000,3.0,2.96875,2.144787549972534
27-11-1990,2.9375,2.984375,39200,2.984375,2.953125,2.1334972381591797
28-11-1990,2.90625,2.953125,145600,2.953125,2.921875,2.1109206676483154
29-11-1990,2.90625,2.90625,36800,2.90625,2.90625,2.09963321685791
30-11-1990,2.765625,2.875,236000,2.890625,2.8125,2.0319039821624756
03-12-1990,2.609375,2.796875,366400,2.796875,2.75,1.986749291419983
04-12-1990,2.671875,2.734375,230400,2.734375,2.71875,1.9641731977462769
05-12-1990,2.71875,2.71875,432000,2.796875,2.78125,2.0093274116516113
06-12-1990,2.734375,2.78125,248800,2.8125,2.75,1.986749291419983
07-12-1990,2.625,2.71875,257600,2.71875,2.71875,1.9641731977462769
10-12-1990,2.703125,2.734375,179200,2.734375,2.71875,1.9641731977462769
11-12-1990,2.703125,2.703125,981600,2.78125,2.734375,1.9754612445831299
12-12-1990,2.734375,2.75,493600,2.78125,2.78125,2.0093274116516113
13-12-1990,2.71875,2.75,908000,2.75,2.71875,1.9641731977462769
14-12-1990,2.65625,2.71875,207200,2.78125,2.78125,2.0093274116516113
17-12-1990,2.734375,2.796875,89600,2.828125,2.734375,1.9754612445831299
18-12-1990,2.703125,2.765625,153600,2.796875,2.703125,1.952884554862976
19-12-1990,2.640625,2.703125,277600,2.734375,2.640625,1.907729983329773
20-12-1990,2.546875,2.609375,1007200,2.609375,2.5625,1.8512884378433228
21-12-1990,2.484375,2.484375,980000,2.515625,2.5,1.8061363697052002
24-12-1990,2.5,2.5,222400,2.546875,2.546875,1.8400002717971802
26-12-1990,2.5625,2.5625,93600,2.75,2.75,1.986749291419983
27-12-1990,2.71875,2.75,51200,2.75,2.734375,1.9754612445831299
28-12-1990,2.65625,2.71875,49600,2.71875,2.65625,1.9190181493759155
31-12-1990,2.53125,2.65625,364800,2.65625,2.65625,1.9190181493759155
02-01-1991,2.59375,2.625,36000,2.625,2.59375,1.8738653659820557
03-01-1991,2.484375,2.59375,413600,2.59375,2.484375,1.7948477268218994
04-01-1991,2.328125,2.4375,216800,2.4375,2.328125,1.6819634437561035
07-01-1991,2.21875,2.296875,599200,2.3125,2.265625,1.6368101835250854
08-01-1991,2.15625,2.25,679200,2.265625,2.15625,1.5577919483184814
09-01-1991,2.140625,2.171875,572000,2.1875,2.140625,1.5509997606277466
10-01-1991,2.09375,2.125,296000,2.140625,2.140625,1.5509997606277466
11-01-1991,2.109375,2.109375,278400,2.21875,2.21875,1.6076053380966187
14-01-1991,2.21875,2.234375,172800,2.265625,2.25,1.6302475929260254
15-01-1991,2.171875,2.25,92800,2.25,2.234375,1.618926763534546
16-01-1991,2.171875,2.234375,50400,2.25,2.203125,1.59628427028656
17-01-1991,2.03125,2.1875,1341600,2.25,2.203125,1.59628427028656
18-01-1991,2.15625,2.203125,275200,2.21875,2.1875,1.584963321685791
21-01-1991,2.0625,2.15625,550400,2.15625,2.125,1.539678692817688
22-01-1991,2.125,2.15625,174400,2.171875,2.125,1.539678692817688
23-01-1991,2.140625,2.140625,837600,2.265625,2.25,1.6302475929260254
24-01-1991,2.265625,2.3125,495200,2.34375,2.28125,1.6528900861740112
25-01-1991,2.21875,2.3125,817600,2.375,2.25,1.6302475929260254
28-01-1991,2.203125,2.28125,679200,2.296875,2.234375,1.618926763534546
29-01-1991,2.25,2.25,99200,2.265625,2.25,1.6302475929260254
30-01-1991,2.203125,2.21875,132000,2.25,2.234375,1.618926763534546
31-01-1991,2.15625,2.21875,384800,2.21875,2.171875,1.5736415386199951
01-02-1991,2.15625,2.15625,869600,2.21875,2.21875,1.6076053380966187
04-02-1991,2.203125,2.21875,961600,2.28125,2.25,1.6302475929260254
05-02-1991,2.25,2.25,1217600,2.375,2.28125,1.6528900861740112
06-02-1991,2.28125,2.28125,1186400,2.5,2.484375,1.8000653982162476
07-02-1991,2.546875,2.546875,1224000,2.78125,2.6875,1.9472399950027466
08-02-1991,2.640625,2.65625,94400,2.6875,2.671875,1.935917854309082
11-02-1991,2.640625,2.6875,307200,2.75,2.703125,1.958561658859253
12-02-1991,2.59375,2.734375,216000,2.734375,2.59375,1.8793127536773682
13-02-1991,2.625,2.625,45600,2.703125,2.703125,1.958561658859253
14-02-1991,2.515625,2.6875,148800,2.6875,2.515625,1.8227076530456543
15-02-1991,2.484375,2.484375,356800,2.609375,2.609375,1.8906341791152954
19-02-1991,2.515625,2.59375,160800,2.59375,2.546875,1.8453490734100342
20-02-1991,2.515625,2.546875,219200,2.625,2.625,1.9019538164138794
21-02-1991,2.59375,2.609375,188000,2.625,2.59375,1.8793127536773682
22-02-1991,2.453125,2.59375,408000,2.59375,2.453125,1.7774220705032349
25-02-1991,2.328125,2.453125,88800,2.453125,2.328125,1.686853289604187
26-02-1991,2.265625,2.3125,776800,2.328125,2.3125,1.6755329370498657
27-02-1991,2.34375,2.34375,1544000,2.453125,2.4375,1.7661019563674927
28-02-1991,2.453125,2.46875,578400,2.59375,2.59375,1.8793127536773682
01-03-1991,2.53125,2.59375,692800,2.59375,2.546875,1.8453490734100342
04-03-1991,2.546875,2.546875,555200,2.609375,2.59375,1.8793127536773682
05-03-1991,2.5625,2.5625,418400,2.578125,2.578125,1.86799156665802
06-03-1991,2.546875,2.546875,180800,2.59375,2.5625,1.8566700220108032
07-03-1991,2.5625,2.5625,280800,2.625,2.625,1.9019538164138794
08-03-1991,2.59375,2.625,442400,2.78125,2.671875,1.935917854309082
11-03-1991,2.6875,2.6875,116000,2.75,2.71875,1.9698830842971802
12-03-1991,2.6875,2.75,163200,2.75,2.6875,1.9472399950027466
13-03-1991,2.59375,2.671875,147200,2.671875,2.59375,1.8793127536773682
14-03-1991,2.546875,2.578125,184000,2.59375,2.5625,1.8566700220108032
15-03-1991,2.546875,2.546875,289600,2.65625,2.625,1.9019538164138794
18-03-1991,2.625,2.640625,136000,2.6875,2.6875,1.9472399950027466
19-03-1991,2.609375,2.65625,172000,2.65625,2.625,1.9019538164138794
20-03-1991,2.625,2.625,71200,2.65625,2.65625,1.9245967864990234
21-03-1991,2.65625,2.671875,327200,2.734375,2.734375,1.9812039136886597
22-03-1991,2.703125,2.734375,93600,2.734375,2.703125,1.958561658859253
25-03-1991,2.640625,2.71875,115200,2.71875,2.703125,1.958561658859253
26-03-1991,2.625,2.671875,447200,2.6875,2.65625,1.9245967864990234
27-03-1991,2.578125,2.640625,86400,2.640625,2.578125,1.86799156665802
28-03-1991,2.515625,2.578125,70400,2.59375,2.515625,1.8227076530456543
01-04-1991,2.453125,2.53125,128000,2.53125,2.453125,1.7774220705032349
02-04-1991,2.359375,2.46875,367200,2.46875,2.375,1.7208168506622314
03-04-1991,2.3125,2.359375,1358400,2.4375,2.3125,1.6755329370498657
04-04-1991,2.34375,2.34375,1049600,2.40625,2.40625,1.743458867073059
05-04-1991,2.421875,2.421875,73600,2.484375,2.484375,1.8000653982162476
08-04-1991,2.4375,2.46875,24000,2.46875,2.4375,1.7661019563674927
09-04-1991,2.375,2.40625,198400,2.4375,2.4375,1.7661019563674927
10-04-1991,2.34375,2.421875,198400,2.421875,2.390625,1.7365909814834595
11-04-1991,2.359375,2.40625,255200,2.4375,2.40625,1.7479405403137207
12-04-1991,2.390625,2.40625,398400,2.46875,2.46875,1.7933424711227417
15-04-1991,2.5,2.5,258400,2.5625,2.546875,1.8500936031341553
16-04-1991,2.53125,2.53125,468000,2.640625,2.625,1.9068437814712524
17-04-1991,2.578125,2.640625,662400,2.640625,2.578125,1.872794508934021
18-04-1991,2.609375,2.609375,68800,2.640625,2.625,1.9068437814712524
19-04-1991,2.5625,2.609375,20000,2.625,2.578125,1.872794508934021
22-04-1991,2.484375,2.578125,263200,2.578125,2.5,1.8160430192947388
23-04-1991,2.453125,2.484375,69600,2.5,2.5,1.8160430192947388
24-04-1991,2.46875,2.5,44800,2.5,2.5,1.8160430192947388
25-04-1991,2.46875,2.484375,70400,2.484375,2.46875,1.7933424711227417
26-04-1991,2.421875,2.453125,24000,2.453125,2.4375,1.7706419229507446
29-04-1991,2.34375,2.421875,373600,2.421875,2.34375,1.7025401592254639
30-04-1991,2.328125,2.375,1024800,2.375,2.375,1.7252410650253296
01-05-1991,2.34375,2.375,403200,2.421875,2.421875,1.7592918872833252
02-05-1991,2.375,2.40625,714400,2.40625,2.375,1.7252410650253296
03-05-1991,2.359375,2.40625,464000,2.4375,2.390625,1.7365909814834595
06-05-1991,2.359375,2.375,11200,2.375,2.359375,1.7138903141021729
07-05-1991,2.28125,2.375,360800,2.375,2.34375,1.7025401592254639
08-05-1991,2.328125,2.34375,567200,2.453125,2.4375,1.7706419229507446
09-05-1991,2.40625,2.453125,150400,2.46875,2.46875,1.7933424711227417
10-05-1991,2.375,2.453125,88800,2.453125,2.375,1.7252410650253296
13-05-1991,2.28125,2.359375,872000,2.359375,2.28125,1.657139778137207
14-05-1991,2.28125,2.28125,366400,2.375,2.3125,1.6798399686813354
15-05-1991,2.3125,2.3125,276000,2.40625,2.390625,1.7365909814834595
16-05-1991,2.421875,2.453125,404000,2.46875,2.421875,1.7592918872833252
17-05-1991,2.390625,2.421875,25600,2.421875,2.40625,1.7479405403137207
20-05-1991,2.390625,2.40625,121600,2.4375,2.40625,1.7479405403137207
21-05-1991,2.34375,2.4375,480800,2.4375,2.375,1.7252410650253296
22-05-1991,2.375,2.375,31200,2.390625,2.390625,1.7365909814834595
23-05-1991,2.375,2.40625,240800,2.421875,2.40625,1.7479405403137207
24-05-1991,2.375,2.421875,160800,2.453125,2.390625,1.7365909814834595
28-05-1991,2.375,2.375,60000,2.453125,2.4375,1.7706419229507446
29-05-1991,2.421875,2.4375,334400,2.4375,2.4375,1.7706419229507446
30-05-1991,2.421875,2.4375,521600,2.5,2.5,1.8160430192947388
31-05-1991,2.53125,2.53125,1612000,2.625,2.625,1.9068437814712524
03-06-1991,2.609375,2.65625,256000,2.6875,2.625,1.9068437814712524
04-06-1991,2.625,2.65625,1272800,2.671875,2.625,1.9068437814712524
05-06-1991,2.578125,2.625,141600,2.625,2.578125,1.872794508934021
06-06-1991,2.5625,2.5625,201600,2.609375,2.59375,1.8841445446014404
07-06-1991,2.53125,2.59375,473600,2.59375,2.53125,1.8387430906295776
10-06-1991,2.53125,2.546875,168000,2.5625,2.53125,1.8387430906295776
11-06-1991,2.4375,2.53125,155200,2.53125,2.5,1.8160430192947388
12-06-1991,2.484375,2.5,51200,2.5,2.5,1.8160430192947388
13-06-1991,2.484375,2.5,1600,2.5,2.484375,1.8046925067901611
14-06-1991,2.46875,2.46875,83200,2.46875,2.46875,1.7933424711227417
17-06-1991,2.453125,2.46875,21600,2.46875,2.453125,1.7819921970367432
18-06-1991,2.4375,2.46875,341600,2.46875,2.46875,1.7933424711227417
19-06-1991,2.46875,2.46875,170400,2.5,2.5,1.8160430192947388
20-06-1991,2.375,2.4375,30400,2.4375,2.375,1.7252410650253296
21-06-1991,2.3125,2.34375,251200,2.375,2.34375,1.7025401592254639
24-06-1991,2.3125,2.359375,124800,2.375,2.375,1.7252410650253296
25-06-1991,2.359375,2.375,39200,2.375,2.359375,1.7138903141021729
26-06-1991,2.296875,2.328125,188000,2.359375,2.3125,1.6798399686813354
27-06-1991,2.28125,2.3125,260800,2.34375,2.3125,1.6798399686813354
28-06-1991,2.25,2.3125,418400,2.3125,2.25,1.6344388723373413
01-07-1991,2.203125,2.25,188800,2.25,2.203125,1.6003881692886353
02-07-1991,2.21875,2.21875,127200,2.25,2.234375,1.6230885982513428
03-07-1991,2.203125,2.203125,267200,2.28125,2.25,1.6344388723373413
05-07-1991,2.25,2.25,3200,2.25,2.25,1.6344388723373413
08-07-1991,2.25,2.25,192800,2.296875,2.296875,1.6684892177581787
09-07-1991,2.234375,2.28125,359200,2.3125,2.265625,1.6502795219421387
10-07-1991,2.234375,2.25,56000,2.25,2.234375,1.6275160312652588
11-07-1991,2.25,2.25,152800,2.328125,2.3125,1.6844234466552734
12-07-1991,2.28125,2.34375,1025600,2.359375,2.296875,1.6730413436889648
15-07-1991,2.328125,2.328125,791200,2.375,2.375,1.7299482822418213
16-07-1991,2.34375,2.359375,1204800,2.421875,2.421875,1.7640914916992188
17-07-1991,2.4375,2.453125,1052000,2.59375,2.59375,1.8892854452133179
18-07-1991,2.625,2.625,304800,2.671875,2.671875,1.946191430091858
19-07-1991,2.609375,2.671875,73600,2.671875,2.625,1.9120484590530396
22-07-1991,2.5625,2.625,72000,2.625,2.59375,1.8892854452133179
23-07-1991,2.578125,2.609375,124000,2.625,2.578125,1.8779051303863525
24-07-1991,2.578125,2.578125,39200,2.59375,2.578125,1.8779051303863525
25-07-1991,2.5625,2.5625,232800,2.578125,2.5625,1.8665224313735962
26-07-1991,2.5625,2.5625,226400,2.59375,2.59375,1.8892854452133179
29-07-1991,2.59375,2.609375,6400,2.609375,2.609375,1.9006659984588623
30-07-1991,2.59375,2.59375,582400,2.65625,2.625,1.9120484590530396
31-07-1991,2.53125,2.5625,698400,2.578125,2.53125,1.8437615633010864
01-08-1991,2.53125,2.53125,248800,2.578125,2.5625,1.8665224313735962
02-08-1991,2.546875,2.546875,71200,2.546875,2.546875,1.8551419973373413
05-08-1991,2.546875,2.5625,96800,2.578125,2.5625,1.8665224313735962
06-08-1991,2.5625,2.5625,457600,2.625,2.59375,1.8892854452133179
07-08-1991,2.59375,2.59375,733600,2.625,2.625,1.9120484590530396
08-08-1991,2.625,2.640625,413600,2.6875,2.640625,1.9234285354614258
09-08-1991,2.625,2.625,111200,2.65625,2.65625,1.934809923171997
12-08-1991,2.640625,2.6875,223200,2.703125,2.65625,1.934809923171997
13-08-1991,2.640625,2.640625,118400,2.6875,2.6875,1.9575730562210083
14-08-1991,2.671875,2.671875,372000,2.75,2.75,2.0030980110168457
15-08-1991,2.71875,2.75,369600,2.75,2.75,2.0030980110168457
16-08-1991,2.703125,2.734375,490400,2.734375,2.703125,1.9689536094665527
19-08-1991,2.609375,2.671875,91200,2.671875,2.609375,1.9006659984588623
20-08-1991,2.609375,2.609375,22400,2.625,2.625,1.9120484590530396
21-08-1991,2.609375,2.625,78400,2.625,2.625,1.9120484590530396
22-08-1991,2.5625,2.640625,292800,2.640625,2.59375,1.8892854452133179
23-08-1991,2.59375,2.59375,1125600,2.75,2.75,2.0030980110168457
26-08-1991,2.734375,2.75,183200,2.78125,2.75,2.0030980110168457
27-08-1991,2.75,2.75,362400,2.84375,2.8125,2.0486228466033936
28-08-1991,2.828125,2.84375,203200,2.953125,2.9375,2.1396725177764893
29-08-1991,2.921875,2.921875,416800,3.0,2.953125,2.1510531902313232
30-08-1991,2.90625,2.96875,236800,2.96875,2.921875,2.128290891647339
03-09-1991,2.78125,2.890625,230400,2.890625,2.78125,2.025860548019409
04-09-1991,2.75,2.765625,175200,2.8125,2.765625,2.0144784450531006
05-09-1991,2.796875,2.796875,309600,2.828125,2.8125,2.0486228466033936
06-09-1991,2.78125,2.8125,55200,2.828125,2.828125,2.0600035190582275
09-09-1991,2.8125,2.8125,8000,2.84375,2.84375,2.071385622024536
10-09-1991,2.8125,2.828125,452800,2.84375,2.84375,2.071385622024536
11-09-1991,2.8125,2.828125,145600,2.84375,2.84375,2.071385622024536
12-09-1991,2.84375,2.859375,48000,2.859375,2.84375,2.071385622024536
13-09-1991,2.828125,2.875,366400,2.875,2.84375,2.071385622024536
16-09-1991,2.828125,2.859375,433600,2.859375,2.84375,2.071385622024536
17-09-1991,2.84375,2.84375,648800,2.890625,2.890625,2.105527877807617
18-09-1991,2.90625,2.90625,136800,2.9375,2.9375,2.1396725177764893
19-09-1991,2.921875,2.953125,153600,3.03125,3.03125,2.2079596519470215
20-09-1991,3.0,3.078125,312000,3.078125,3.03125,2.2079596519470215
23-09-1991,2.96875,3.0625,113600,3.0625,2.96875,2.162435293197632
24-09-1991,2.875,2.96875,77600,2.96875,2.875,2.0941476821899414
25-09-1991,2.875,2.890625,7200,2.890625,2.875,2.0941476821899414
26-09-1991,2.875,2.90625,296000,2.953125,2.953125,2.1510531902313232
27-09-1991,2.953125,2.96875,70400,3.0,2.96875,2.162435293197632
30-09-1991,2.953125,2.953125,229600,2.984375,2.984375,2.173816204071045
01-10-1991,2.859375,2.984375,1317600,3.0,2.859375,2.08276629447937
02-10-1991,2.84375,2.84375,740800,2.9375,2.90625,2.1169097423553467
03-10-1991,2.890625,2.90625,106400,2.90625,2.890625,2.105527877807617
04-10-1991,2.859375,2.875,599200,2.890625,2.890625,2.105527877807617
07-10-1991,2.859375,2.875,973600,2.9375,2.9375,2.1396725177764893
08-10-1991,2.90625,2.9375,735200,2.953125,2.9375,2.144235134124756
09-10-1991,2.90625,2.9375,43200,2.9375,2.90625,2.1214241981506348
10-10-1991,2.875,2.90625,144000,2.921875,2.90625,2.1214241981506348
11-10-1991,2.90625,2.921875,23200,2.921875,2.921875,2.132828712463379
14-10-1991,2.9375,2.9375,32000,2.984375,2.96875,2.167046308517456
15-10-1991,2.984375,2.984375,181600,3.015625,3.015625,2.201263904571533
16-10-1991,3.0,3.046875,104000,3.078125,3.0,2.189857006072998
17-10-1991,2.984375,3.0,89600,3.03125,3.03125,2.2126669883728027
18-10-1991,3.0,3.046875,87200,3.046875,3.0,2.189857006072998
21-10-1991,2.984375,2.984375,3200,2.984375,2.984375,2.1784515380859375
22-10-1991,2.875,2.953125,495200,2.953125,2.875,2.0986132621765137
23-10-1991,2.890625,2.953125,95200,2.953125,2.890625,2.110018014907837
24-10-1991,2.84375,2.875,35200,2.875,2.84375,2.0758018493652344
25-10-1991,2.75,2.8125,277600,2.8125,2.765625,2.0187735557556152
28-10-1991,2.75,2.75,181600,2.84375,2.84375,2.0758018493652344
29-10-1991,2.75,2.859375,404800,2.859375,2.765625,2.0187735557556152
30-10-1991,2.78125,2.78125,12800,2.796875,2.796875,2.041584014892578
31-10-1991,2.796875,2.8125,37600,2.84375,2.84375,2.0758018493652344
01-11-1991,2.84375,2.859375,62400,2.9375,2.9375,2.144235134124756
04-11-1991,2.921875,2.921875,624800,3.078125,3.03125,2.2126669883728027
05-11-1991,3.046875,3.046875,421600,3.140625,3.109375,2.26969575881958
06-11-1991,3.03125,3.140625,228000,3.140625,3.03125,2.2126669883728027
07-11-1991,3.0,3.046875,206400,3.046875,3.03125,2.2126669883728027
08-11-1991,3.015625,3.015625,96800,3.0625,3.0625,2.2354791164398193
11-11-1991,3.03125,3.0625,20000,3.0625,3.03125,2.2126669883728027
12-11-1991,3.0,3.0,71200,3.046875,3.03125,2.2126669883728027
13-11-1991,3.03125,3.03125,127200,3.140625,3.125,2.2811007499694824
14-11-1991,3.015625,3.125,102400,3.125,3.03125,2.2126669883728027
15-11-1991,2.890625,3.015625,141600,3.015625,2.9375,2.144235134124756
18-11-1991,2.875,2.9375,236800,2.9375,2.875,2.0986132621765137
19-11-1991,2.8125,2.890625,143200,2.890625,2.8125,2.0529909133911133
20-11-1991,2.78125,2.796875,144000,2.796875,2.78125,2.030179262161255
21-11-1991,2.78125,2.78125,202400,2.84375,2.796875,2.041584014892578
22-11-1991,2.75,2.78125,97600,2.78125,2.75,2.007368326187134
25-11-1991,2.75,2.75,16800,2.765625,2.765625,2.0187735557556152
26-11-1991,2.609375,2.75,346400,2.75,2.625,1.9161245822906494
27-11-1991,2.625,2.640625,76800,2.65625,2.625,1.9161245822906494
29-11-1991,2.640625,2.640625,28800,2.65625,2.65625,1.9389350414276123
02-12-1991,2.59375,2.65625,299200,2.671875,2.59375,1.8933135271072388
03-12-1991,2.59375,2.59375,97600,2.65625,2.65625,1.9389350414276123
04-12-1991,2.625,2.65625,20800,2.65625,2.625,1.9161245822906494
05-12-1991,2.625,2.625,96800,2.6875,2.640625,1.927530288696289
06-12-1991,2.640625,2.640625,858400,2.65625,2.640625,1.927530288696289
09-12-1991,2.59375,2.625,57600,2.625,2.59375,1.8933135271072388
10-12-1991,2.484375,2.5625,171200,2.5625,2.5,1.824880838394165
11-12-1991,2.453125,2.515625,415200,2.5625,2.546875,1.8590972423553467
12-12-1991,2.515625,2.515625,124000,2.53125,2.53125,1.8476909399032593
13-12-1991,2.5,2.53125,319200,2.53125,2.5,1.824880838394165
16-12-1991,2.484375,2.5,372800,2.515625,2.515625,1.8362866640090942
17-12-1991,2.515625,2.515625,683200,2.53125,2.53125,1.8476909399032593
18-12-1991,2.546875,2.546875,112800,2.578125,2.578125,1.8819082975387573
19-12-1991,2.53125,2.5625,392800,2.5625,2.546875,1.8590972423553467
20-12-1991,2.5,2.53125,164800,2.53125,2.515625,1.8362866640090942
23-12-1991,2.421875,2.5,1115200,2.5,2.421875,1.767853856086731
24-12-1991,2.40625,2.421875,107200,2.515625,2.515625,1.8362866640090942
26-12-1991,2.5,2.5,15200,2.515625,2.5,1.824880838394165
27-12-1991,2.46875,2.5,48000,2.5,2.46875,1.8020700216293335
30-12-1991,2.421875,2.46875,920800,2.46875,2.4375,1.7792584896087646
31-12-1991,2.421875,2.4375,116000,2.484375,2.4375,1.7792584896087646
02-01-1992,2.390625,2.421875,732000,2.421875,2.390625,1.7450432777404785
03-01-1992,2.375,2.390625,277600,2.390625,2.375,1.733636498451233
06-01-1992,2.3125,2.390625,528000,2.390625,2.328125,1.6994205713272095
07-01-1992,2.140625,2.3125,584000,2.3125,2.140625,1.562554121017456
08-01-1992,2.109375,2.125,692800,2.203125,2.125,1.5511490106582642
09-01-1992,2.109375,2.125,348000,2.171875,2.171875,1.5853652954101562
10-01-1992,2.140625,2.15625,840800,2.234375,2.234375,1.630987286567688
13-01-1992,2.234375,2.234375,456000,2.328125,2.296875,1.6766091585159302
14-01-1992,2.21875,2.296875,281600,2.3125,2.21875,1.619581937789917
15-01-1992,2.234375,2.234375,377600,2.296875,2.28125,1.6652036905288696
16-01-1992,2.28125,2.28125,80800,2.328125,2.328125,1.6994205713272095
17-01-1992,2.359375,2.359375,47200,2.421875,2.421875,1.767853856086731
20-01-1992,2.421875,2.421875,91200,2.53125,2.515625,1.8362866640090942
21-01-1992,2.515625,2.53125,578400,2.546875,2.515625,1.8362866640090942
22-01-1992,2.484375,2.515625,300000,2.515625,2.484375,1.813475489616394
23-01-1992,2.453125,2.46875,313600,2.5,2.453125,1.7906643152236938
24-01-1992,2.3125,2.453125,1104800,2.453125,2.3125,1.6880145072937012
27-01-1992,2.25,2.296875,292800,2.296875,2.265625,1.653798222541809
28-01-1992,2.1875,2.265625,2736800,2.265625,2.1875,1.5967711210250854
29-01-1992,2.15625,2.203125,463200,2.25,2.203125,1.608176350593567
30-01-1992,2.140625,2.140625,405600,2.21875,2.1875,1.5967711210250854
31-01-1992,2.1875,2.203125,714400,2.296875,2.25,1.6423922777175903
03-02-1992,2.21875,2.265625,96800,2.265625,2.234375,1.630987286567688
04-02-1992,2.1875,2.21875,355200,2.234375,2.203125,1.608176350593567
05-02-1992,2.15625,2.203125,604000,2.203125,2.171875,1.5853652954101562
06-02-1992,2.09375,2.1875,492800,2.1875,2.09375,1.5283371210098267
07-02-1992,2.078125,2.078125,704000,2.21875,2.21875,1.619581937789917
10-02-1992,2.234375,2.234375,782400,2.34375,2.328125,1.6994205713272095
11-02-1992,2.3125,2.328125,241600,2.34375,2.3125,1.6880145072937012
12-02-1992,2.28125,2.3125,446400,2.328125,2.3125,1.6880145072937012
13-02-1992,2.296875,2.3125,161600,2.3125,2.296875,1.6766091585159302
14-02-1992,2.28125,2.296875,190400,2.328125,2.328125,1.6994205713272095
18-02-1992,2.28125,2.3125,504800,2.3125,2.296875,1.6766091585159302
19-02-1992,2.265625,2.28125,20800,2.28125,2.265625,1.653798222541809
20-02-1992,2.265625,2.265625,260800,2.296875,2.296875,1.6766091585159302
21-02-1992,2.296875,2.296875,311200,2.328125,2.3125,1.6880145072937012
24-02-1992,2.3125,2.328125,249600,2.34375,2.3125,1.6880145072937012
25-02-1992,2.28125,2.3125,144000,2.3125,2.28125,1.6652036905288696
26-02-1992,2.25,2.265625,835200,2.265625,2.265625,1.653798222541809
27-02-1992,2.25,2.25,67200,2.296875,2.265625,1.653798222541809
28-02-1992,2.234375,2.234375,321600,2.265625,2.234375,1.630987286567688
02-03-1992,2.25,2.25,588800,2.296875,2.25,1.6423922777175903
03-03-1992,2.25,2.265625,608800,2.28125,2.25,1.6423922777175903
04-03-1992,2.234375,2.234375,488000,2.25,2.25,1.6423922777175903
05-03-1992,2.265625,2.265625,607200,2.28125,2.28125,1.6652036905288696
06-03-1992,2.28125,2.28125,404800,2.296875,2.28125,1.6652036905288696
09-03-1992,2.28125,2.28125,348000,2.328125,2.328125,1.6994205713272095
10-03-1992,2.328125,2.328125,348000,2.40625,2.390625,1.7450432777404785
11-03-1992,2.390625,2.40625,376000,2.40625,2.40625,1.756447672843933
12-03-1992,2.40625,2.4375,347200,2.4375,2.40625,1.756447672843933
13-03-1992,2.421875,2.4375,138400,2.46875,2.46875,1.8020700216293335
16-03-1992,2.40625,2.5,122400,2.5,2.40625,1.756447672843933
17-03-1992,2.421875,2.4375,569600,2.4375,2.4375,1.7792584896087646
18-03-1992,2.40625,2.421875,46400,2.421875,2.40625,1.756447672843933
19-03-1992,2.375,2.4375,394400,2.4375,2.40625,1.756447672843933
20-03-1992,2.453125,2.46875,232000,2.484375,2.46875,1.8020700216293335
23-03-1992,2.5,2.5,545600,2.546875,2.5,1.824880838394165
24-03-1992,2.5,2.5,618400,2.578125,2.5625,1.8705018758773804
25-03-1992,2.5625,2.578125,116800,2.578125,2.578125,1.8819082975387573
26-03-1992,2.609375,2.609375,959200,2.734375,2.6875,1.9617482423782349
27-03-1992,2.609375,2.625,236800,2.65625,2.625,1.9161245822906494
30-03-1992,2.609375,2.625,324800,2.625,2.625,1.9161245822906494
31-03-1992,2.640625,2.640625,307200,2.65625,2.65625,1.9389350414276123
01-04-1992,2.609375,2.65625,172800,2.65625,2.609375,1.9047179222106934
02-04-1992,2.578125,2.609375,878400,2.609375,2.59375,1.8933135271072388
03-04-1992,2.546875,2.5625,109600,2.5625,2.5625,1.8705018758773804
06-04-1992,2.578125,2.578125,336000,2.734375,2.734375,1.9959639310836792
07-04-1992,2.6875,2.734375,612000,2.734375,2.6875,1.9617482423782349
08-04-1992,2.625,2.671875,771200,2.671875,2.625,1.9161245822906494
09-04-1992,2.609375,2.609375,170400,2.75,2.75,2.0121591091156006
10-04-1992,2.734375,2.734375,213600,2.75,2.734375,2.000727891921997
13-04-1992,2.75,2.765625,141600,2.78125,2.765625,2.0235917568206787
14-04-1992,2.78125,2.78125,228000,2.8125,2.8125,2.0578901767730713
15-04-1992,2.8125,2.8125,312000,2.828125,2.828125,2.0693230628967285
16-04-1992,2.8125,2.8125,39200,2.828125,2.8125,2.0578901767730713
20-04-1992,2.8125,2.8125,245600,2.890625,2.890625,2.115053653717041
21-04-1992,2.875,2.921875,337600,2.921875,2.90625,2.1264872550964355
22-04-1992,2.875,2.890625,8800,2.890625,2.875,2.1036219596862793
23-04-1992,2.84375,2.875,1366400,2.984375,2.875,2.1036219596862793
24-04-1992,3.0,3.03125,687200,3.171875,3.0,2.195082902908325
27-04-1992,3.03125,3.0625,511200,3.09375,3.046875,2.2293801307678223
28-04-1992,3.015625,3.046875,234400,3.046875,3.03125,2.2179489135742188
29-04-1992,3.03125,3.046875,237600,3.046875,3.03125,2.2179489135742188
30-04-1992,3.03125,3.046875,1008800,3.0625,3.046875,2.2293801307678223
01-05-1992,3.03125,3.03125,146400,3.046875,3.046875,2.2293801307678223
04-05-1992,3.0625,3.0625,251200,3.078125,3.0625,2.2408149242401123
05-05-1992,3.046875,3.046875,532000,3.078125,3.078125,2.252246856689453
06-05-1992,3.015625,3.078125,792800,3.078125,3.015625,2.206517219543457
07-05-1992,2.96875,3.015625,61600,3.015625,2.96875,2.17221736907959
08-05-1992,2.9375,3.0,42400,3.0,2.953125,2.1607844829559326
11-05-1992,2.90625,2.953125,91200,2.953125,2.90625,2.1264872550964355
12-05-1992,2.75,2.921875,1191200,2.921875,2.796875,2.0464580059051514
13-05-1992,2.765625,2.796875,261600,2.796875,2.765625,2.0235917568206787
14-05-1992,2.6875,2.765625,1236800,2.84375,2.84375,2.080756187438965
15-05-1992,2.8125,2.828125,509600,2.90625,2.890625,2.115053653717041
18-05-1992,2.90625,2.90625,431200,3.015625,3.0,2.195082902908325
19-05-1992,2.953125,3.0,572000,3.046875,3.046875,2.2293801307678223
20-05-1992,3.0625,3.0625,200800,3.09375,3.09375,2.2636799812316895
21-05-1992,3.078125,3.078125,946400,3.15625,3.09375,2.2636799812316895
22-05-1992,3.078125,3.09375,230400,3.15625,3.140625,2.2979769706726074
26-05-1992,3.125,3.140625,1300800,3.1875,3.1875,2.332275390625
27-05-1992,3.125,3.203125,1122400,3.25,3.125,2.286545515060425
28-05-1992,3.078125,3.140625,627200,3.140625,3.125,2.286545515060425
29-05-1992,3.078125,3.125,368800,3.125,3.09375,2.2636799812316895
01-06-1992,3.078125,3.078125,348800,3.171875,3.171875,2.3208422660827637
02-06-1992,3.125,3.140625,108000,3.15625,3.140625,2.2979769706726074
03-06-1992,3.125,3.15625,1278400,3.1875,3.15625,2.30941104888916
04-06-1992,3.125,3.125,1169600,3.140625,3.140625,2.2979769706726074
05-06-1992,3.140625,3.15625,816800,3.1875,3.1875,2.332275390625
08-06-1992,3.21875,3.21875,1822400,3.375,3.3125,2.4237372875213623
09-06-1992,3.28125,3.3125,2077600,3.34375,3.3125,2.4237372875213623
10-06-1992,3.21875,3.3125,778400,3.3125,3.28125,2.400872230529785
11-06-1992,3.28125,3.28125,438400,3.40625,3.40625,2.49233341217041
12-06-1992,3.34375,3.375,2042400,3.375,3.34375,2.446603298187256
15-06-1992,3.296875,3.328125,2438400,3.328125,3.3125,2.4237372875213623
16-06-1992,3.296875,3.328125,660800,3.328125,3.296875,2.412304162979126
17-06-1992,3.21875,3.3125,673600,3.3125,3.234375,2.3665738105773926
18-06-1992,3.21875,3.21875,948800,3.265625,3.234375,2.3665738105773926
19-06-1992,3.234375,3.25,417600,3.265625,3.234375,2.3665738105773926
22-06-1992,3.203125,3.203125,568000,3.21875,3.203125,2.343707799911499
23-06-1992,3.203125,3.203125,518400,3.21875,3.203125,2.343707799911499
24-06-1992,3.171875,3.21875,224000,3.21875,3.21875,2.355142116546631
25-06-1992,3.125,3.21875,307200,3.21875,3.125,2.286545515060425
26-06-1992,3.109375,3.125,629600,3.140625,3.140625,2.2979769706726074
29-06-1992,3.125,3.125,1169600,3.1875,3.171875,2.3208422660827637
30-06-1992,3.15625,3.1875,1156800,3.1875,3.1875,2.332275390625
01-07-1992,3.203125,3.21875,694400,3.25,3.25,2.3780062198638916
02-07-1992,3.25,3.28125,2007200,3.296875,3.28125,2.400872230529785
06-07-1992,3.296875,3.3125,771200,3.328125,3.3125,2.4237372875213623
07-07-1992,3.3125,3.3125,655200,3.359375,3.328125,2.4351699352264404
08-07-1992,3.3125,3.328125,480800,3.34375,3.328125,2.4351699352264404
09-07-1992,3.328125,3.34375,424000,3.375,3.359375,2.4626624584198
10-07-1992,3.328125,3.390625,568800,3.390625,3.328125,2.439751386642456
13-07-1992,3.328125,3.328125,624800,3.359375,3.359375,2.4626624584198
14-07-1992,3.390625,3.390625,627200,3.625,3.578125,2.623021364212036
15-07-1992,3.515625,3.59375,465600,3.609375,3.53125,2.5886571407318115
16-07-1992,3.390625,3.5,143200,3.5,3.421875,2.5084779262542725
17-07-1992,3.421875,3.4375,45600,3.453125,3.4375,2.519932985305786
20-07-1992,3.390625,3.4375,645600,3.453125,3.390625,2.485567569732666
21-07-1992,3.390625,3.390625,224000,3.421875,3.40625,2.4970247745513916
22-07-1992,3.40625,3.40625,235200,3.484375,3.484375,2.5542924404144287
23-07-1992,3.46875,3.5,112000,3.515625,3.5,2.565749406814575
24-07-1992,3.5,3.5,329600,3.609375,3.609375,2.645928382873535
27-07-1992,3.5625,3.609375,66400,3.609375,3.59375,2.634474039077759
28-07-1992,3.53125,3.59375,91200,3.59375,3.5625,2.6115663051605225
29-07-1992,3.546875,3.5625,84800,3.578125,3.578125,2.623021364212036
30-07-1992,3.5625,3.5625,565600,3.640625,3.640625,2.668837070465088
31-07-1992,3.625,3.640625,500800,3.65625,3.640625,2.668837070465088
03-08-1992,3.625,3.625,492000,3.703125,3.703125,2.714653253555298
04-08-1992,3.6875,3.6875,398400,3.71875,3.71875,2.726109504699707
05-08-1992,3.375,3.59375,268800,3.59375,3.40625,2.4970247745513916
06-08-1992,3.171875,3.25,1166400,3.265625,3.25,2.382481098175049
07-08-1992,3.25,3.25,996000,3.515625,3.515625,2.5772032737731934
10-08-1992,3.5,3.515625,88000,3.5625,3.546875,2.600111961364746
11-08-1992,3.546875,3.546875,2608000,3.5625,3.546875,2.600111961364746
12-08-1992,3.5625,3.5625,92800,3.59375,3.59375,2.634474039077759
13-08-1992,3.609375,3.625,684800,3.734375,3.734375,2.737563371658325
14-08-1992,3.734375,3.78125,1344000,3.84375,3.75,2.749016046524048
17-08-1992,3.671875,3.71875,1498400,3.71875,3.6875,2.703200578689575
18-08-1992,3.578125,3.671875,823200,3.6875,3.59375,2.634474039077759
19-08-1992,3.5,3.5,844800,3.6875,3.5625,2.6115663051605225
20-08-1992,3.5625,3.625,7611200,3.640625,3.59375,2.634474039077759
21-08-1992,3.59375,3.609375,1631200,3.640625,3.59375,2.634474039077759
24-08-1992,3.578125,3.578125,1412000,3.609375,3.578125,2.623021364212036
25-08-1992,3.578125,3.578125,1002400,3.71875,3.671875,2.6917459964752197
26-08-1992,3.6875,3.6875,1988000,3.75,3.75,2.749016046524048
27-08-1992,3.71875,3.734375,872800,3.796875,3.78125,2.7719242572784424
28-08-1992,3.8125,3.8125,1732800,3.9375,3.9375,2.886467218399048
31-08-1992,3.84375,3.90625,1392800,3.984375,3.875,2.8406498432159424
01-09-1992,3.859375,3.875,740000,3.9375,3.90625,2.8635590076446533
02-09-1992,3.875,3.9375,458400,3.953125,3.890625,2.852104663848877
03-09-1992,3.890625,3.90625,617600,3.921875,3.921875,2.8750123977661133
04-09-1992,3.921875,3.921875,190400,3.96875,3.953125,2.8979222774505615
08-09-1992,3.953125,3.953125,1150400,4.09375,4.078125,2.9895541667938232
09-09-1992,4.0625,4.078125,660000,4.09375,4.09375,3.001009702682495
10-09-1992,4.0625,4.09375,809600,4.109375,4.078125,2.9895541667938232
11-09-1992,4.0625,4.078125,549600,4.109375,4.109375,3.0124640464782715
14-09-1992,4.109375,4.140625,684000,4.171875,4.125,3.023918628692627
15-09-1992,4.109375,4.125,557600,4.140625,4.109375,3.0124640464782715
16-09-1992,4.09375,4.109375,723200,4.171875,4.125,3.023918628692627
17-09-1992,4.125,4.125,565600,4.28125,4.21875,3.0926437377929688
18-09-1992,4.1875,4.1875,668000,4.3125,4.3125,3.161367654800415
21-09-1992,4.328125,4.328125,808000,4.34375,4.34375,3.1842775344848633
22-09-1992,4.296875,4.3125,662400,4.375,4.359375,3.195733070373535
23-09-1992,4.359375,4.375,898400,4.46875,4.375,3.207185745239258
24-09-1992,4.390625,4.390625,1256800,4.484375,4.46875,3.275911569595337
25-09-1992,4.203125,4.421875,1837600,4.4375,4.25,3.1155524253845215
28-09-1992,4.109375,4.25,1749600,4.25,4.125,3.023918628692627
29-09-1992,4.171875,4.203125,276800,4.234375,4.234375,3.1040990352630615
30-09-1992,4.15625,4.21875,330400,4.234375,4.15625,3.046827554702759
01-10-1992,4.03125,4.140625,378400,4.140625,4.03125,2.955193281173706
02-10-1992,4.015625,4.046875,772800,4.078125,4.046875,2.966646671295166
05-10-1992,3.953125,4.046875,312000,4.046875,3.96875,2.9093761444091797
06-10-1992,3.90625,3.96875,885600,3.96875,3.9375,2.886467218399048
07-10-1992,3.953125,3.953125,649600,4.015625,3.984375,2.920830249786377
08-10-1992,3.96875,3.96875,266400,4.0625,4.0,2.9368903636932373
09-10-1992,3.90625,3.96875,112000,4.03125,3.9375,2.891002893447876
12-10-1992,3.9375,3.9375,351200,3.953125,3.953125,2.9024739265441895
13-10-1992,3.890625,3.9375,412000,3.953125,3.9375,2.891002893447876
14-10-1992,3.921875,3.9375,341600,3.953125,3.9375,2.891002893447876
15-10-1992,3.90625,3.9375,205600,3.9375,3.90625,2.8680572509765625
16-10-1992,3.921875,3.921875,1151200,4.078125,4.0625,2.9827792644500732
19-10-1992,4.0625,4.0625,756000,4.3125,4.28125,3.143392562866211
20-10-1992,4.203125,4.265625,209600,4.265625,4.21875,3.0975027084350586
21-10-1992,4.140625,4.203125,104800,4.203125,4.15625,3.051614999771118
22-10-1992,3.953125,4.140625,365600,4.140625,3.953125,2.9024739265441895
23-10-1992,3.9375,3.96875,101600,3.96875,3.953125,2.9024739265441895
26-10-1992,3.953125,3.953125,396800,4.015625,4.0,2.9368903636932373
27-10-1992,3.8125,3.984375,318400,3.984375,3.859375,2.8336405754089355
28-10-1992,3.71875,3.859375,920800,3.859375,3.828125,2.8106961250305176
29-10-1992,3.828125,3.828125,348000,3.90625,3.84375,2.8221676349639893
30-10-1992,3.8125,3.875,143200,3.875,3.8125,2.799222946166992
02-11-1992,3.828125,3.828125,156800,3.875,3.875,2.8451128005981445
03-11-1992,3.75,3.875,296800,3.875,3.75,2.7533345222473145
04-11-1992,3.65625,3.765625,464000,3.78125,3.65625,2.684502363204956
05-11-1992,3.46875,3.625,1245600,3.625,3.484375,2.558306932449341
06-11-1992,3.53125,3.53125,1823200,3.671875,3.65625,2.684502363204956
09-11-1992,3.5,3.625,1322400,3.65625,3.546875,2.604196310043335
10-11-1992,3.5625,3.5625,1669600,3.625,3.625,2.6615569591522217
11-11-1992,3.5625,3.625,551200,3.625,3.5625,2.6156680583953857
12-11-1992,3.5625,3.625,1320800,3.640625,3.578125,2.627141237258911
13-11-1992,3.59375,3.609375,324000,3.640625,3.625,2.6615569591522217
16-11-1992,3.609375,3.609375,257600,3.65625,3.65625,2.684502363204956
17-11-1992,3.625,3.625,304000,3.640625,3.625,2.6615569591522217
18-11-1992,3.625,3.625,693600,3.640625,3.640625,2.673030376434326
19-11-1992,3.46875,3.609375,821600,3.640625,3.5,2.56977915763855
20-11-1992,3.53125,3.53125,536800,3.59375,3.59375,2.6386120319366455
23-11-1992,3.5625,3.5625,660000,3.671875,3.625,2.6615569591522217
24-11-1992,3.578125,3.609375,503200,3.609375,3.59375,2.6386120319366455
25-11-1992,3.578125,3.578125,96000,3.609375,3.59375,2.6386120319366455
27-11-1992,3.578125,3.59375,230400,3.625,3.625,2.6615569591522217
30-11-1992,3.53125,3.625,539200,3.625,3.546875,2.604196310043335
01-12-1992,3.53125,3.546875,1116800,3.546875,3.53125,2.592724561691284
02-12-1992,3.53125,3.53125,721600,3.578125,3.578125,2.627141237258911
03-12-1992,3.421875,3.5625,1191200,3.5625,3.4375,2.5238916873931885
04-12-1992,3.421875,3.4375,1249600,3.5,3.5,2.56977915763855
07-12-1992,3.484375,3.484375,167200,3.546875,3.5,2.56977915763855
08-12-1992,3.453125,3.5,580000,3.515625,3.484375,2.558306932449341
09-12-1992,3.484375,3.5,374400,3.546875,3.53125,2.592724561691284
10-12-1992,3.484375,3.546875,1601600,3.609375,3.609375,2.650085926055908
11-12-1992,3.65625,3.65625,151200,3.703125,3.671875,2.695974111557007
14-12-1992,3.609375,3.671875,920000,3.671875,3.65625,2.684502363204956
15-12-1992,3.609375,3.640625,406400,3.640625,3.625,2.6615569591522217
16-12-1992,3.59375,3.609375,402400,3.625,3.59375,2.6386120319366455
17-12-1992,3.5625,3.609375,52800,3.609375,3.5625,2.6156680583953857
18-12-1992,3.578125,3.59375,295200,3.59375,3.59375,2.6386120319366455
21-12-1992,3.546875,3.578125,488000,3.578125,3.546875,2.604196310043335
22-12-1992,3.53125,3.5625,960800,3.5625,3.546875,2.604196310043335
23-12-1992,3.515625,3.546875,1008000,3.546875,3.515625,2.581252098083496
24-12-1992,3.53125,3.546875,655200,3.59375,3.59375,2.6386120319366455
28-12-1992,3.53125,3.578125,97600,3.578125,3.546875,2.604196310043335
29-12-1992,3.53125,3.546875,596000,3.59375,3.5625,2.6156680583953857
30-12-1992,3.546875,3.578125,639200,3.578125,3.546875,2.604196310043335
31-12-1992,3.5625,3.5625,376000,3.6875,3.671875,2.695974111557007
04-01-1993,3.609375,3.6875,597600,3.71875,3.609375,2.650085926055908
05-01-1993,3.578125,3.609375,715200,3.6875,3.6875,2.7074477672576904
06-01-1993,3.59375,3.6875,928800,3.6875,3.609375,2.650085926055908
07-01-1993,3.5625,3.609375,333600,3.609375,3.578125,2.627141237258911
08-01-1993,3.46875,3.578125,1617600,3.578125,3.46875,2.5468368530273438
11-01-1993,3.375,3.484375,410400,3.484375,3.390625,2.494868755340576
12-01-1993,3.359375,3.390625,269600,3.40625,3.40625,2.5063657760620117
13-01-1993,3.359375,3.40625,826400,3.484375,3.46875,2.5523550510406494
14-01-1993,3.34375,3.4375,619200,3.453125,3.34375,2.4603774547576904
15-01-1993,3.359375,3.375,1232800,3.421875,3.390625,2.494868755340576
18-01-1993,3.359375,3.390625,460000,3.390625,3.375,2.483372449874878
19-01-1993,3.359375,3.359375,1157600,3.484375,3.453125,2.54085636138916
20-01-1993,3.4375,3.453125,132800,3.484375,3.46875,2.5523550510406494
21-01-1993,3.4375,3.4375,272800,3.5,3.5,2.5753486156463623
22-01-1993,3.5,3.515625,540800,3.59375,3.59375,2.6443307399749756
25-01-1993,3.578125,3.578125,969600,3.703125,3.6875,2.7133123874664307
26-01-1993,3.78125,3.8125,1224000,3.875,3.78125,2.782294750213623
27-01-1993,3.703125,3.734375,636000,3.765625,3.75,2.759300708770752
28-01-1993,3.75,3.765625,773600,3.90625,3.90625,2.8742733001708984
29-01-1993,3.890625,3.90625,492800,4.0,3.96875,2.9202609062194824
01-02-1993,4.0,4.0,1876800,4.078125,4.0625,2.989243984222412
02-02-1993,4.046875,4.046875,1044000,4.09375,4.09375,3.012237548828125
03-02-1993,4.09375,4.09375,1448000,4.359375,4.296875,3.161698818206787
04-02-1993,4.328125,4.328125,1330400,4.4375,4.4375,3.2651751041412354
05-02-1993,4.4375,4.4375,1606400,4.515625,4.5,3.311162233352661
08-02-1993,4.46875,4.5,1975200,4.5,4.5,3.311162233352661
09-02-1993,4.40625,4.5,756000,4.5,4.421875,3.2536747455596924
10-02-1993,4.359375,4.421875,800000,4.453125,4.375,3.219184398651123
11-02-1993,4.359375,4.359375,971200,4.5,4.484375,3.2996647357940674
12-02-1993,4.46875,4.484375,932000,4.484375,4.484375,3.2996647357940674
16-02-1993,4.34375,4.46875,292800,4.46875,4.34375,3.196190595626831
17-02-1993,4.34375,4.359375,632800,4.40625,4.390625,3.2306811809539795
18-02-1993,4.421875,4.421875,604800,4.484375,4.4375,3.2651751041412354
19-02-1993,4.421875,4.4375,3408800,4.515625,4.5,3.311162233352661
22-02-1993,4.5,4.5,1140000,4.609375,4.5625,3.357151746749878
23-02-1993,4.5,4.59375,664000,4.59375,4.546875,3.3456530570983887
24-02-1993,4.46875,4.515625,499200,4.515625,4.484375,3.2996647357940674
25-02-1993,4.359375,4.484375,259200,4.484375,4.359375,3.207688331604004
26-02-1993,4.359375,4.390625,128000,4.421875,4.40625,3.2421791553497314
01-03-1993,4.421875,4.4375,1396000,4.53125,4.4375,3.2651751041412354
02-03-1993,4.4375,4.46875,332800,4.484375,4.453125,3.276669979095459
03-03-1993,4.46875,4.46875,4088800,4.84375,4.78125,3.518109083175659
04-03-1993,4.640625,4.75,913600,4.78125,4.734375,3.4836177825927734
05-03-1993,4.6875,4.71875,335200,4.734375,4.6875,3.4491288661956787
08-03-1993,4.703125,4.703125,472000,4.796875,4.78125,3.518109083175659
09-03-1993,4.75,4.796875,324000,4.796875,4.78125,3.518109083175659
10-03-1993,4.734375,4.78125,199200,4.8125,4.8125,3.5411031246185303
11-03-1993,4.796875,4.8125,213600,4.921875,4.890625,3.5985891819000244
12-03-1993,4.796875,4.921875,702400,4.921875,4.84375,3.564098596572876
15-03-1993,4.84375,4.84375,209600,4.875,4.875,3.5870914459228516
16-03-1993,4.84375,4.859375,316800,4.875,4.859375,3.575591802597046
17-03-1993,4.859375,4.875,136800,4.984375,4.984375,3.667572259902954
18-03-1993,4.921875,4.96875,444000,5.0,5.0,3.679070472717285
19-03-1993,4.96875,4.984375,300800,5.0,4.96875,3.6560754776000977
22-03-1993,4.96875,4.984375,640800,5.0,4.984375,3.667572259902954
23-03-1993,4.96875,5.015625,100800,5.015625,4.96875,3.6560754776000977
24-03-1993,4.96875,4.96875,574400,5.078125,4.96875,3.6560754776000977
25-03-1993,4.84375,4.90625,1020000,4.921875,4.84375,3.564098596572876
26-03-1993,4.8125,4.84375,753600,4.921875,4.90625,3.610085964202881
29-03-1993,4.921875,4.921875,589600,4.984375,4.984375,3.667572259902954
30-03-1993,5.0,5.0,663200,5.03125,5.03125,3.702064275741577
31-03-1993,4.96875,5.03125,558400,5.03125,5.015625,3.690566301345825
01-04-1993,4.984375,5.03125,537600,5.03125,5.0,3.679070472717285
02-04-1993,4.859375,4.953125,240800,4.953125,4.890625,3.5985891819000244
05-04-1993,4.875,4.90625,292800,4.90625,4.90625,3.610085964202881
06-04-1993,4.875,4.90625,604800,4.90625,4.875,3.5870914459228516
07-04-1993,4.8125,4.84375,860000,4.875,4.875,3.5870914459228516
08-04-1993,4.859375,4.859375,24000,4.875,4.875,3.5926177501678467
12-04-1993,4.859375,4.859375,325600,4.96875,4.96875,3.6617074012756348
13-04-1993,4.84375,4.96875,1076800,5.03125,4.875,3.5926177501678467
14-04-1993,4.84375,4.890625,447200,4.890625,4.84375,3.569589138031006
15-04-1993,4.8125,4.875,231200,4.921875,4.8125,3.546560049057007
16-04-1993,4.796875,4.828125,356800,4.84375,4.84375,3.569589138031006
19-04-1993,4.828125,4.828125,173600,4.890625,4.875,3.5926177501678467
20-04-1993,4.90625,4.90625,1133600,5.0625,4.984375,3.6732234954833984
21-04-1993,4.875,5.015625,185600,5.015625,4.875,3.5926177501678467
22-04-1993,4.671875,4.84375,335200,4.84375,4.671875,3.442927598953247
23-04-1993,4.46875,4.671875,786400,4.671875,4.5,3.3162641525268555
26-04-1993,4.515625,4.53125,367200,4.640625,4.625,3.4083826541900635
27-04-1993,4.625,4.65625,108000,4.65625,4.640625,3.419898271560669
28-04-1993,4.625,4.625,189600,4.640625,4.640625,3.419898271560669
29-04-1993,4.625,4.65625,383200,4.75,4.75,3.500500440597534
30-04-1993,4.75,4.75,779200,4.96875,4.921875,3.6271629333496094
03-05-1993,4.953125,4.953125,249600,4.984375,4.953125,3.6501927375793457
04-05-1993,4.90625,4.921875,1332800,4.953125,4.921875,3.6271629333496094
05-05-1993,4.921875,4.921875,65600,4.9375,4.921875,3.6271629333496094
06-05-1993,4.921875,4.921875,664800,5.0,4.9375,3.6386783123016357
07-05-1993,4.90625,4.921875,186400,4.96875,4.921875,3.6271629333496094
10-05-1993,4.8125,4.9375,828000,4.9375,4.8125,3.546560049057007
11-05-1993,4.78125,4.78125,1120800,4.953125,4.9375,3.6386783123016357
12-05-1993,4.90625,4.9375,852000,4.984375,4.953125,3.6501927375793457
13-05-1993,4.90625,4.90625,702400,5.09375,5.0625,3.7307984828948975
14-05-1993,5.0625,5.0625,931200,5.265625,5.171875,3.8114023208618164
17-05-1993,5.15625,5.171875,390400,5.203125,5.203125,3.834430694580078
18-05-1993,5.203125,5.203125,340800,5.328125,5.296875,3.903519630432129
19-05-1993,5.1875,5.3125,412800,5.3125,5.234375,3.8574583530426025
20-05-1993,5.21875,5.21875,216000,5.25,5.234375,3.8574583530426025
21-05-1993,5.203125,5.234375,400000,5.234375,5.21875,3.8459482192993164
24-05-1993,5.21875,5.25,496000,5.25,5.234375,3.8574583530426025
25-05-1993,5.171875,5.1875,400800,5.25,5.1875,3.8229150772094727
26-05-1993,5.15625,5.1875,188000,5.203125,5.203125,3.834430694580078
27-05-1993,5.203125,5.203125,511200,5.3125,5.3125,3.9150314331054688
28-05-1993,5.28125,5.296875,473600,5.3125,5.3125,3.9150314331054688
01-06-1993,5.328125,5.34375,619200,5.4375,5.40625,3.984124183654785
02-06-1993,5.40625,5.40625,522400,5.625,5.5625,4.099270820617676
03-06-1993,5.484375,5.5625,403200,5.5625,5.515625,4.064723014831543
04-06-1993,5.484375,5.5,889600,5.515625,5.5,4.0532121658325195
07-06-1993,5.484375,5.5,482400,5.515625,5.5,4.0532121658325195
08-06-1993,5.421875,5.484375,277600,5.484375,5.4375,4.007150650024414
09-06-1993,5.40625,5.40625,262400,5.5,5.5,4.0532121658325195
10-06-1993,5.4375,5.484375,779200,5.484375,5.4375,4.007150650024414
11-06-1993,5.234375,5.40625,606400,5.40625,5.234375,3.8574583530426025
14-06-1993,5.125,5.21875,763200,5.21875,5.125,3.776855945587158
15-06-1993,5.125,5.125,288800,5.15625,5.125,3.776855945587158
16-06-1993,5.140625,5.140625,219200,5.203125,5.203125,3.834430694580078
17-06-1993,5.21875,5.21875,193600,5.328125,5.25,3.868973970413208
18-06-1993,5.265625,5.28125,224800,5.296875,5.265625,3.8804900646209717
21-06-1993,5.28125,5.28125,292800,5.359375,5.34375,3.9380621910095215
22-06-1993,5.265625,5.34375,1112000,5.34375,5.265625,3.8804900646209717
23-06-1993,5.265625,5.265625,2466400,5.296875,5.296875,3.903519630432129
24-06-1993,5.0625,5.296875,637600,5.296875,5.125,3.776855945587158
25-06-1993,5.109375,5.125,36000,5.125,5.125,3.776855945587158
28-06-1993,5.125,5.125,204800,5.140625,5.140625,3.7883708477020264
29-06-1993,4.984375,5.109375,648000,5.125,5.046875,3.7192814350128174
30-06-1993,5.03125,5.0625,552000,5.09375,5.09375,3.7538275718688965
01-07-1993,5.015625,5.078125,376800,5.078125,5.046875,3.7192814350128174
02-07-1993,5.015625,5.0625,100000,5.0625,5.046875,3.7192814350128174
06-07-1993,5.0,5.046875,437600,5.09375,5.0,3.6847383975982666
07-07-1993,4.96875,4.96875,1369600,5.078125,5.078125,3.7423112392425537
08-07-1993,5.078125,5.078125,955200,5.1875,5.1875,3.8229150772094727
09-07-1993,5.171875,5.171875,1352000,5.25,5.25,3.8745744228363037
12-07-1993,5.28125,5.28125,900000,5.34375,5.3125,3.920701742172241
13-07-1993,5.28125,5.3125,100000,5.3125,5.28125,3.897637128829956
14-07-1993,5.28125,5.28125,538400,5.3125,5.28125,3.897637128829956
15-07-1993,5.21875,5.3125,338400,5.3125,5.25,3.8745744228363037
16-07-1993,5.234375,5.25,147200,5.265625,5.25,3.8745744228363037
19-07-1993,5.25,5.296875,417600,5.296875,5.28125,3.897637128829956
20-07-1993,5.25,5.25,713600,5.3125,5.3125,3.920701742172241
21-07-1993,5.3125,5.3125,395200,5.34375,5.3125,3.920701742172241
22-07-1993,5.28125,5.3125,314400,5.3125,5.296875,3.9091691970825195
23-07-1993,5.25,5.296875,341600,5.3125,5.3125,3.920701742172241
26-07-1993,5.296875,5.34375,196000,5.34375,5.296875,3.9091691970825195
27-07-1993,5.21875,5.265625,191200,5.28125,5.25,3.8745744228363037
28-07-1993,5.234375,5.25,356800,5.296875,5.265625,3.8861076831817627
29-07-1993,5.25,5.265625,98400,5.3125,5.296875,3.9091691970825195
30-07-1993,5.3125,5.3125,57600,5.328125,5.328125,3.9322330951690674
02-08-1993,5.3125,5.328125,1029600,5.46875,5.46875,4.036017417907715
03-08-1993,5.484375,5.484375,356000,5.578125,5.5625,4.105205059051514
04-08-1993,5.546875,5.546875,400000,5.65625,5.625,4.151333332061768
05-08-1993,5.609375,5.609375,56000,5.640625,5.625,4.151333332061768
06-08-1993,5.578125,5.625,348800,5.625,5.59375,4.128268718719482
09-08-1993,5.609375,5.609375,344800,5.6875,5.6875,4.197455406188965
10-08-1993,5.6875,5.6875,632800,5.75,5.75,4.243584156036377
11-08-1993,5.78125,5.78125,784800,6.0,6.0,4.428086280822754
12-08-1993,5.984375,6.0,1103200,6.21875,6.015625,4.439621448516846
13-08-1993,5.9375,6.03125,226400,6.03125,5.9375,4.38196325302124
16-08-1993,5.9375,5.9375,448000,5.984375,5.984375,4.416556358337402
17-08-1993,6.0625,6.0625,640000,6.25,6.25,4.61259126663208
18-08-1993,6.234375,6.234375,805600,6.484375,6.421875,4.739436149597168
19-08-1993,6.3125,6.4375,424000,6.46875,6.3125,4.658715724945068
20-08-1993,6.3125,6.3125,914400,6.453125,6.453125,4.762500762939453
23-08-1993,6.453125,6.46875,964800,6.703125,6.703125,4.947005748748779
24-08-1993,6.53125,6.703125,704000,6.703125,6.5625,4.843218803405762
25-08-1993,6.4375,6.5625,753600,6.578125,6.453125,4.762500762939453
26-08-1993,6.25,6.453125,817600,6.453125,6.296875,4.647188186645508
27-08-1993,6.03125,6.28125,627200,6.28125,6.125,4.520338535308838
30-08-1993,6.109375,6.125,529600,6.25,6.21875,4.5895280838012695
31-08-1993,6.171875,6.234375,888000,6.328125,6.28125,4.635652542114258
01-09-1993,6.28125,6.28125,388800,6.390625,6.375,4.704840660095215
02-09-1993,6.28125,6.375,286400,6.375,6.28125,4.635652542114258
03-09-1993,6.28125,6.28125,135200,6.328125,6.296875,4.647188186645508
07-09-1993,6.125,6.296875,236800,6.328125,6.125,4.520338535308838
08-09-1993,5.953125,6.125,388800,6.125,5.953125,4.393492221832275
09-09-1993,5.921875,5.953125,533600,5.984375,5.96875,4.405025482177734
10-09-1993,5.953125,5.96875,121600,5.984375,5.984375,4.416556358337402
13-09-1993,5.921875,5.984375,472800,6.03125,5.921875,4.370428085327148
14-09-1993,5.90625,5.953125,633600,5.96875,5.9375,4.38196325302124
15-09-1993,5.921875,5.9375,994400,6.046875,6.0,4.428086280822754
16-09-1993,6.0,6.0,152800,6.03125,6.0,4.428086280822754
17-09-1993,5.890625,5.96875,127200,5.96875,5.9375,4.38196325302124
20-09-1993,5.9375,5.9375,248000,5.96875,5.96875,4.405025482177734
21-09-1993,5.96875,5.96875,218400,6.03125,6.015625,4.439621448516846
22-09-1993,5.96875,6.0,99200,6.03125,5.96875,4.405025482177734
23-09-1993,5.953125,5.984375,232800,5.984375,5.984375,4.416556358337402
24-09-1993,5.953125,5.96875,357600,6.0,5.96875,4.405025482177734
27-09-1993,5.953125,5.953125,441600,6.0,5.984375,4.416556358337402
28-09-1993,5.921875,5.984375,326400,5.984375,5.9375,4.38196325302124
29-09-1993,5.9375,5.9375,1200800,6.453125,6.453125,4.762500762939453
30-09-1993,6.453125,6.453125,755200,6.625,6.625,4.889345645904541
01-10-1993,6.59375,6.59375,599200,6.71875,6.71875,4.958535194396973
04-10-1993,6.640625,6.71875,248000,6.75,6.640625,4.90087890625
05-10-1993,6.578125,6.65625,122400,6.65625,6.578125,4.854751110076904
06-10-1993,6.5,6.578125,114400,6.578125,6.53125,4.820158004760742
07-10-1993,6.4375,6.5,224000,6.5,6.484375,4.785563945770264
08-10-1993,6.40625,6.484375,245600,6.484375,6.421875,4.744922637939453
11-10-1993,6.25,6.421875,288000,6.421875,6.25,4.617931365966797
12-10-1993,6.125,6.25,272800,6.25,6.125,4.525576114654541
13-10-1993,5.96875,6.078125,826400,6.109375,5.984375,4.421669960021973
14-10-1993,6.0,6.09375,388000,6.125,6.03125,4.456305027008057
15-10-1993,5.828125,6.0,707200,6.0,5.875,4.340857028961182
18-10-1993,5.71875,5.875,719200,5.875,5.75,4.24849796295166
19-10-1993,5.484375,5.75,1467200,5.875,5.828125,4.3062214851379395
20-10-1993,5.3125,5.796875,1626400,5.796875,5.3125,3.925241708755493
21-10-1993,5.4375,5.4375,3216000,5.6875,5.5,4.063779354095459
22-10-1993,5.375,5.5,928800,5.5,5.375,3.9714224338531494
25-10-1993,5.28125,5.375,901600,5.421875,5.28125,3.9021525382995605
26-10-1993,5.0,5.28125,1536800,5.3125,5.03125,3.7174341678619385
27-10-1993,5.0625,5.0625,1416000,5.1875,5.1875,3.832882881164551
28-10-1993,5.1875,5.1875,1215200,5.453125,5.453125,4.02914571762085
29-10-1993,5.328125,5.421875,412800,5.46875,5.34375,3.948334217071533
01-11-1993,5.34375,5.359375,379200,5.484375,5.453125,4.02914571762085
02-11-1993,5.453125,5.453125,553600,5.578125,5.5625,4.109958171844482
03-11-1993,5.578125,5.609375,540800,5.671875,5.625,4.156139373779297
04-11-1993,5.625,5.65625,345600,5.734375,5.625,4.156139373779297
05-11-1993,5.53125,5.625,112800,5.625,5.5625,4.109958171844482
08-11-1993,5.46875,5.5625,207200,5.5625,5.46875,4.040693283081055
09-11-1993,5.1875,5.46875,542400,5.46875,5.21875,3.8559741973876953
10-11-1993,5.21875,5.25,191200,5.28125,5.265625,3.8906075954437256
11-11-1993,5.203125,5.28125,564800,5.40625,5.21875,3.8559741973876953
12-11-1993,5.0625,5.203125,1202400,5.203125,5.203125,3.844428539276123
15-11-1993,5.140625,5.203125,675200,5.234375,5.140625,3.7982492446899414
16-11-1993,4.875,4.96875,827200,4.984375,4.9375,3.6481666564941406
17-11-1993,4.9375,5.0,1617600,5.203125,5.203125,3.844428539276123
18-11-1993,5.15625,5.203125,463200,5.359375,5.296875,3.913696765899658
19-11-1993,5.21875,5.25,85600,5.265625,5.265625,3.8906075954437256
22-11-1993,5.078125,5.25,173600,5.25,5.078125,3.752068519592285
23-11-1993,5.078125,5.109375,697600,5.21875,5.09375,3.763615131378174
24-11-1993,5.109375,5.109375,556800,5.15625,5.15625,3.8097941875457764
26-11-1993,5.03125,5.125,94400,5.125,5.03125,3.7174341678619385
29-11-1993,4.828125,4.96875,1270400,4.96875,4.828125,3.567352056503296
30-11-1993,4.78125,4.84375,457600,4.859375,4.828125,3.567352056503296
01-12-1993,4.828125,4.859375,316000,4.921875,4.859375,3.5904393196105957
02-12-1993,4.84375,4.84375,429600,4.90625,4.859375,3.5904393196105957
03-12-1993,4.875,4.875,142400,4.90625,4.875,3.601985216140747
06-12-1993,4.84375,4.875,308800,4.90625,4.890625,3.613532781600952
07-12-1993,4.859375,4.875,528800,4.953125,4.90625,3.6250762939453125
08-12-1993,4.84375,4.890625,89600,4.890625,4.859375,3.5904393196105957
09-12-1993,4.71875,4.859375,69600,4.859375,4.78125,3.5327184200286865
10-12-1993,4.796875,4.796875,271200,4.84375,4.828125,3.567352056503296
13-12-1993,4.71875,4.859375,102400,4.859375,4.765625,3.521172523498535
14-12-1993,4.734375,4.796875,620800,4.8125,4.8125,3.555809259414673
15-12-1993,4.71875,4.765625,128000,4.765625,4.734375,3.498084545135498
16-12-1993,4.75,4.75,565600,4.84375,4.78125,3.5327184200286865
17-12-1993,4.734375,4.796875,200800,4.8125,4.75,3.5096278190612793
20-12-1993,4.40625,4.71875,927200,4.71875,4.515625,3.336455821990967
21-12-1993,4.265625,4.546875,880000,4.546875,4.4375,3.2787327766418457
22-12-1993,4.40625,4.453125,676000,4.75,4.734375,3.498084545135498
23-12-1993,4.703125,4.703125,176000,4.796875,4.75,3.5096278190612793
27-12-1993,4.6875,4.6875,1060000,4.890625,4.859375,3.5904393196105957
28-12-1993,4.8125,4.890625,629600,4.921875,4.8125,3.555809259414673
29-12-1993,4.828125,4.828125,648000,4.890625,4.859375,3.5904393196105957
30-12-1993,4.828125,4.84375,270400,4.859375,4.859375,3.5904393196105957
31-12-1993,4.828125,4.859375,112800,4.875,4.875,3.601985216140747
03-01-1994,4.828125,4.875,332000,4.875,4.875,3.601985216140747
04-01-1994,4.84375,4.84375,202400,4.890625,4.890625,3.613532781600952
05-01-1994,4.96875,4.96875,800000,5.25,5.203125,3.844428539276123
06-01-1994,5.234375,5.234375,999200,5.484375,5.453125,4.02914571762085
07-01-1994,5.40625,5.46875,704800,5.46875,5.4375,4.0176005363464355
10-01-1994,5.421875,5.421875,573600,5.640625,5.640625,4.173438549041748
11-01-1994,5.453125,5.59375,1028800,5.59375,5.5,4.069394588470459
12-01-1994,5.390625,5.5,296000,5.53125,5.40625,4.000028610229492
13-01-1994,5.3125,5.40625,10779200,5.421875,5.3125,3.9306650161743164
14-01-1994,5.15625,5.28125,1295200,5.328125,5.15625,3.815056324005127
17-01-1994,5.21875,5.25,1098400,5.3125,5.296875,3.91910457611084
18-01-1994,5.3125,5.3125,851200,5.4375,5.4375,4.023149490356445
19-01-1994,5.46875,5.46875,1249600,5.609375,5.515625,4.080953598022461
20-01-1994,5.359375,5.515625,487200,5.5625,5.359375,3.9653451442718506
21-01-1994,5.34375,5.390625,354400,5.421875,5.375,3.976905107498169
24-01-1994,5.3125,5.390625,408800,5.40625,5.3125,3.9306650161743164
25-01-1994,5.296875,5.3125,284000,5.328125,5.3125,3.9306650161743164
26-01-1994,5.265625,5.3125,873600,5.40625,5.375,3.976905107498169
27-01-1994,5.375,5.375,1322400,5.5625,5.546875,4.104075908660889
28-01-1994,5.484375,5.5,303200,5.515625,5.5,4.069394588470459
31-01-1994,5.515625,5.53125,787200,5.671875,5.515625,4.080953598022461
01-02-1994,5.546875,5.546875,700800,5.625,5.609375,4.150317192077637
02-02-1994,5.578125,5.578125,999200,5.9375,5.765625,4.265926361083984
03-02-1994,5.734375,5.8125,155200,5.8125,5.75,4.254364013671875
04-02-1994,5.703125,5.78125,1171200,5.828125,5.71875,4.231243133544922
07-02-1994,5.609375,5.671875,363200,5.671875,5.625,4.161879062652588
08-02-1994,5.59375,5.625,355200,5.75,5.734375,4.242806434631348
09-02-1994,5.59375,5.734375,272800,5.734375,5.65625,4.184999465942383
10-02-1994,5.5,5.65625,944800,5.65625,5.5,4.069394588470459
11-02-1994,5.5,5.53125,212800,5.71875,5.6875,4.208122730255127
14-02-1994,5.40625,5.6875,335200,5.6875,5.5,4.069394588470459
15-02-1994,5.46875,5.46875,137600,5.53125,5.5,4.069394588470459
16-02-1994,5.375,5.46875,541600,5.484375,5.375,3.976905107498169
17-02-1994,5.34375,5.390625,538400,5.46875,5.34375,3.953786611557007
18-02-1994,5.328125,5.375,437600,5.390625,5.34375,3.953786611557007
22-02-1994,5.359375,5.375,83200,5.40625,5.375,3.976905107498169
23-02-1994,5.34375,5.34375,152000,5.4375,5.421875,4.0115885734558105
24-02-1994,5.375,5.421875,108800,5.4375,5.4375,4.023149490356445
25-02-1994,5.46875,5.5,848800,5.5625,5.46875,4.046272277832031
28-02-1994,5.375,5.46875,57600,5.46875,5.375,3.976905107498169
01-03-1994,5.34375,5.40625,180000,5.40625,5.375,3.976905107498169
02-03-1994,5.28125,5.34375,310400,5.34375,5.3125,3.9306650161743164
03-03-1994,5.296875,5.328125,92800,5.34375,5.3125,3.9306650161743164
04-03-1994,5.296875,5.296875,196800,5.40625,5.390625,3.9884679317474365
07-03-1994,5.34375,5.40625,268800,5.40625,5.34375,3.953786611557007
08-03-1994,5.234375,5.3125,516800,5.328125,5.234375,3.8728606700897217
09-03-1994,4.96875,5.203125,609600,5.203125,5.03125,3.7225701808929443
10-03-1994,4.921875,5.015625,894400,5.046875,4.9375,3.653203010559082
11-03-1994,4.921875,4.953125,410400,5.03125,5.015625,3.7110071182250977
14-03-1994,5.015625,5.015625,308800,5.1875,5.171875,3.8266165256500244
15-03-1994,5.21875,5.21875,446400,5.328125,5.28125,3.907541036605835
16-03-1994,5.25,5.265625,458400,5.296875,5.28125,3.907541036605835
17-03-1994,5.265625,5.265625,423200,5.515625,5.484375,4.057831764221191
18-03-1994,5.5,5.53125,879200,5.6875,5.6875,4.208122730255127
21-03-1994,5.671875,5.71875,813600,5.734375,5.71875,4.231243133544922
22-03-1994,5.6875,5.6875,1078400,5.8125,5.796875,4.289050579071045
23-03-1994,5.625,5.6875,722400,5.6875,5.671875,4.196562767028809
24-03-1994,5.5625,5.59375,674400,5.65625,5.625,4.161879062652588
25-03-1994,5.609375,5.609375,510400,5.671875,5.625,4.161879062652588
28-03-1994,5.4375,5.609375,1590400,5.609375,5.4375,4.023149490356445
29-03-1994,5.25,5.421875,617600,5.421875,5.25,3.8844218254089355
30-03-1994,5.109375,5.234375,567200,5.328125,5.3125,3.9306650161743164
31-03-1994,5.265625,5.3125,148800,5.34375,5.34375,3.953786611557007
04-04-1994,5.25,5.3125,445600,5.3125,5.265625,3.895982027053833
05-04-1994,5.234375,5.28125,940000,5.328125,5.25,3.8844218254089355
06-04-1994,5.21875,5.3125,240000,5.375,5.375,3.976905107498169
07-04-1994,5.34375,5.375,574400,5.4375,5.34375,3.953786611557007
08-04-1994,5.3125,5.328125,169600,5.34375,5.34375,3.953786611557007
11-04-1994,5.265625,5.3125,698400,5.3125,5.296875,3.9246137142181396
12-04-1994,5.3125,5.3125,1101600,5.40625,5.375,3.9824976921081543
13-04-1994,5.359375,5.375,604000,5.4375,5.4375,4.028803825378418
14-04-1994,5.359375,5.390625,1280800,5.53125,5.53125,4.098267078399658
15-04-1994,5.46875,5.53125,826400,5.875,5.875,4.352962493896484
18-04-1994,5.6875,5.8125,1331200,5.8125,5.796875,4.295080184936523
19-04-1994,5.734375,5.78125,704000,5.8125,5.734375,4.248770713806152
20-04-1994,5.703125,5.71875,727200,5.71875,5.71875,4.237191677093506
21-04-1994,5.703125,5.703125,480000,5.765625,5.75,4.260342597961426
22-04-1994,5.71875,5.734375,332000,5.796875,5.765625,4.271921634674072
25-04-1994,5.734375,5.765625,498400,5.9375,5.9375,4.399271488189697
26-04-1994,5.9375,5.9375,1096000,5.96875,5.96875,4.422423362731934
28-04-1994,5.9375,5.953125,856800,6.015625,5.953125,4.4108452796936035
29-04-1994,5.890625,5.9375,535200,5.9375,5.9375,4.399271488189697
02-05-1994,5.890625,5.90625,652000,5.953125,5.953125,4.4108452796936035
03-05-1994,5.859375,5.9375,560800,5.9375,5.875,4.352962493896484
04-05-1994,5.875,5.875,358400,5.9375,5.9375,4.399271488189697
05-05-1994,5.921875,5.96875,66400,5.96875,5.921875,4.387691497802734
06-05-1994,5.921875,5.921875,343200,6.125,6.09375,4.515037536621094
09-05-1994,6.03125,6.109375,453600,6.109375,6.078125,4.503462314605713
10-05-1994,6.09375,6.140625,632800,6.140625,6.09375,4.515037536621094
11-05-1994,6.03125,6.09375,187200,6.109375,6.03125,4.4687323570251465
12-05-1994,6.03125,6.046875,806400,6.15625,6.140625,4.549770355224609
13-05-1994,6.109375,6.109375,257600,6.125,6.125,4.538193225860596
16-05-1994,6.109375,6.140625,293600,6.140625,6.109375,4.526618003845215
17-05-1994,5.890625,6.09375,1044000,6.09375,5.953125,4.4108452796936035
18-05-1994,5.90625,5.96875,1417600,5.984375,5.96875,4.422423362731934
19-05-1994,5.890625,5.984375,205600,5.984375,5.890625,4.364535331726074
20-05-1994,5.8125,5.90625,309600,5.90625,5.828125,4.318231582641602
23-05-1994,5.765625,5.796875,208800,5.8125,5.765625,4.271921634674072
24-05-1994,5.703125,5.75,287200,5.75,5.703125,4.225611686706543
25-05-1994,5.65625,5.71875,179200,5.71875,5.65625,4.190881252288818
26-05-1994,5.515625,5.59375,840800,5.625,5.546875,4.1098456382751465
27-05-1994,5.53125,5.5625,70400,5.59375,5.578125,4.132996082305908
31-05-1994,5.5,5.546875,752800,5.578125,5.5,4.075112819671631
01-06-1994,5.5,5.5,480800,5.546875,5.515625,4.086690425872803
02-06-1994,5.46875,5.5,600000,5.53125,5.46875,4.0519585609436035
03-06-1994,5.34375,5.453125,136800,5.453125,5.421875,4.017228126525879
06-06-1994,5.453125,5.5,132800,5.5,5.46875,4.0519585609436035
07-06-1994,5.46875,5.46875,863200,5.578125,5.5625,4.121419906616211
08-06-1994,5.4375,5.5625,276800,5.5625,5.46875,4.0519585609436035
09-06-1994,5.375,5.4375,304800,5.4375,5.375,3.9824976921081543
10-06-1994,5.375,5.375,165600,5.578125,5.578125,4.132996082305908
13-06-1994,5.578125,5.578125,736800,5.703125,5.6875,4.214034557342529
14-06-1994,5.703125,5.703125,476000,5.75,5.75,4.260342597961426
15-06-1994,5.71875,5.75,292000,5.78125,5.734375,4.248770713806152
16-06-1994,5.71875,5.71875,132000,5.78125,5.78125,4.283499240875244
17-06-1994,5.75,5.75,384000,5.90625,5.90625,4.3761138916015625
20-06-1994,5.75,5.9375,174800,5.9375,5.84375,4.329806327819824
21-06-1994,5.78125,5.78125,166400,5.90625,5.90625,4.3761138916015625
22-06-1994,5.875,5.96875,52800,5.96875,5.90625,4.3761138916015625
23-06-1994,5.75,5.96875,197200,5.96875,5.75,4.260342597961426
24-06-1994,5.59375,5.75,143200,5.75,5.71875,4.237191677093506
27-06-1994,5.625,5.6875,136800,5.75,5.71875,4.237191677093506
28-06-1994,5.59375,5.65625,190800,5.71875,5.71875,4.237191677093506
29-06-1994,5.65625,5.71875,94800,5.75,5.75,4.260342597961426
30-06-1994,5.59375,5.6875,440400,5.75,5.75,4.260342597961426
01-07-1994,5.625,5.75,150400,5.75,5.65625,4.190881252288818
05-07-1994,5.5,5.6875,72400,5.6875,5.5,4.075112819671631
06-07-1994,5.46875,5.5,182800,5.6875,5.6875,4.214034557342529
07-07-1994,5.59375,5.71875,36000,5.71875,5.59375,4.144575595855713
08-07-1994,5.5,5.5625,24000,5.59375,5.5,4.075112819671631
11-07-1994,5.5,5.53125,51600,5.5625,5.5625,4.127047061920166
12-07-1994,5.5,5.5625,98800,5.59375,5.5625,4.127047061920166
13-07-1994,5.40625,5.59375,277200,5.65625,5.5,4.080677509307861
14-07-1994,5.4375,5.53125,72800,5.53125,5.4375,4.034305572509766
15-07-1994,5.34375,5.40625,68800,5.40625,5.375,3.98793625831604
18-07-1994,5.3125,5.4375,261600,5.46875,5.46875,4.057491302490234
19-07-1994,5.375,5.4375,143200,5.4375,5.375,3.98793625831604
20-07-1994,5.3125,5.40625,31600,5.40625,5.3125,3.9415624141693115
21-07-1994,5.1875,5.1875,230800,5.34375,5.34375,3.9647486209869385
22-07-1994,5.1875,5.3125,37600,5.3125,5.21875,3.8720052242279053
25-07-1994,5.03125,5.25,187200,5.25,5.03125,3.732891798019409
26-07-1994,4.9375,5.0625,230000,5.0625,4.96875,3.686520576477051
27-07-1994,4.90625,5.0,551200,5.03125,4.9375,3.663334369659424
28-07-1994,4.9375,4.9375,342800,5.0,5.0,3.7097067832946777
29-07-1994,4.96875,5.0,209600,5.0,4.96875,3.686520576477051
01-08-1994,4.9375,4.9375,620000,5.0,5.0,3.7097067832946777
02-08-1994,4.9375,4.96875,216400,5.0,5.0,3.7097067832946777
03-08-1994,4.90625,4.96875,430800,5.03125,5.0,3.7097067832946777
04-08-1994,4.9375,4.96875,156400,5.0625,5.0,3.7097067832946777
05-08-1994,4.78125,4.96875,233200,5.0,4.78125,3.5474042892456055
08-08-1994,4.8125,4.84375,731600,4.90625,4.84375,3.5937790870666504
09-08-1994,4.78125,4.8125,1479200,5.0,5.0,3.7097067832946777
10-08-1994,5.03125,5.0625,600000,5.125,5.0625,3.756077527999878
11-08-1994,4.96875,5.03125,326800,5.09375,4.96875,3.686520576477051
12-08-1994,4.9375,4.96875,558400,5.03125,5.0,3.7097067832946777
15-08-1994,4.96875,5.0,71600,5.0625,4.96875,3.686520576477051
16-08-1994,4.9375,5.0,300800,5.0,4.9375,3.663334369659424
17-08-1994,4.90625,4.9375,148800,5.0,4.96875,3.686520576477051
18-08-1994,4.90625,4.96875,228400,4.96875,4.9375,3.663334369659424
19-08-1994,4.90625,4.9375,330400,4.953125,4.90625,3.640150308609009
22-08-1994,4.8125,4.9375,137200,4.9375,4.8125,3.5705926418304443
23-08-1994,4.78125,4.875,459200,4.90625,4.84375,3.5937790870666504
24-08-1994,4.875,4.875,956000,5.03125,4.9375,3.663334369659424
25-08-1994,4.75,4.96875,773200,4.96875,4.78125,3.5474042892456055
26-08-1994,4.65625,4.8125,1071600,4.875,4.8125,3.5705926418304443
29-08-1994,4.625,4.875,1677600,4.875,4.71875,3.501035213470459
30-08-1994,4.6875,4.71875,976800,4.8125,4.8125,3.5705926418304443
31-08-1994,4.75,4.8125,1103600,4.90625,4.8125,3.5705926418304443
01-09-1994,4.78125,4.78125,967600,4.875,4.84375,3.5937790870666504
02-09-1994,4.84375,4.90625,250400,4.9375,4.9375,3.663334369659424
06-09-1994,4.875,4.90625,397200,5.03125,5.03125,3.732891798019409
07-09-1994,5.0625,5.0625,1347600,5.25,5.1875,3.8488194942474365
08-09-1994,5.125,5.125,1925200,5.4375,5.4375,4.034305572509766
09-09-1994,5.125,5.375,1384800,5.375,5.125,3.802448034286499
12-09-1994,5.125,5.1875,572800,5.21875,5.125,3.802448034286499
13-09-1994,5.125,5.15625,136400,5.1875,5.15625,3.825634002685547
14-09-1994,5.125,5.125,378800,5.25,5.25,3.8951923847198486
15-09-1994,5.21875,5.25,1040800,5.3125,5.25,3.8951923847198486
16-09-1994,5.25,5.28125,429600,5.375,5.375,3.98793625831604
19-09-1994,5.25,5.375,374400,5.375,5.25,3.8951923847198486
20-09-1994,5.0,5.1875,248400,5.1875,5.125,3.802448034286499
21-09-1994,4.9375,5.125,303200,5.125,5.0,3.7097067832946777
22-09-1994,5.0,5.0625,68000,5.0625,5.0,3.7097067832946777
23-09-1994,5.0625,5.0625,456000,5.21875,5.1875,3.8488194942474365
26-09-1994,5.15625,5.15625,168800,5.25,5.25,3.8951923847198486
27-09-1994,5.15625,5.21875,271200,5.21875,5.1875,3.8488194942474365
28-09-1994,5.15625,5.1875,45600,5.21875,5.15625,3.825634002685547
29-09-1994,5.125,5.1875,135200,5.1875,5.15625,3.825634002685547
30-09-1994,5.0625,5.1875,63600,5.1875,5.09375,3.7792623043060303
03-10-1994,5.0625,5.09375,100000,5.125,5.0625,3.756077527999878
04-10-1994,4.96875,5.09375,256800,5.09375,4.96875,3.686520576477051
05-10-1994,4.96875,4.96875,100400,5.03125,5.03125,3.732891798019409
06-10-1994,5.03125,5.0625,187200,5.125,5.0625,3.756077527999878
07-10-1994,5.09375,5.09375,220000,5.3125,5.28125,3.9241907596588135
10-10-1994,5.28125,5.28125,344000,5.375,5.3125,3.947410821914673
11-10-1994,5.3125,5.3125,328800,5.375,5.3125,3.947410821914673
12-10-1994,5.15625,5.25,155600,5.25,5.15625,3.831312656402588
13-10-1994,5.1875,5.21875,285600,5.28125,5.25,3.9009714126586914
14-10-1994,5.1875,5.25,151200,5.25,5.25,3.9009714126586914
17-10-1994,5.25,5.3125,88000,5.3125,5.25,3.9009714126586914
18-10-1994,5.25,5.25,153200,5.375,5.375,3.9938530921936035
19-10-1994,5.34375,5.34375,236000,5.4375,5.34375,3.970632553100586
20-10-1994,5.21875,5.3125,174000,5.34375,5.25,3.9009714126586914
21-10-1994,5.1875,5.1875,66800,5.25,5.21875,3.877751350402832
24-10-1994,5.1875,5.25,72800,5.34375,5.3125,3.947410821914673
25-10-1994,5.1875,5.3125,243200,5.34375,5.25,3.9009714126586914
26-10-1994,5.21875,5.25,512800,5.40625,5.40625,4.017070770263672
27-10-1994,5.375,5.375,1548800,5.625,5.53125,4.109954833984375
28-10-1994,5.46875,5.5,638000,5.6875,5.65625,4.2028303146362305
31-10-1994,5.5,5.625,102000,5.625,5.53125,4.109954833984375
01-11-1994,5.46875,5.53125,71200,5.5625,5.5625,4.133170127868652
02-11-1994,5.4375,5.53125,349600,5.53125,5.46875,4.063512325286865
03-11-1994,5.46875,5.5,54000,5.5625,5.53125,4.109954833984375
04-11-1994,5.46875,5.46875,237600,5.53125,5.46875,4.063512325286865
07-11-1994,5.4375,5.5,145600,5.5,5.4375,4.040290832519531
08-11-1994,5.375,5.40625,126800,5.4375,5.40625,4.017070770263672
09-11-1994,5.4375,5.4375,328400,5.46875,5.4375,4.040290832519531
10-11-1994,5.4375,5.4375,60800,5.46875,5.4375,4.040290832519531
11-11-1994,5.34375,5.4375,80800,5.46875,5.34375,3.970632553100586
14-11-1994,5.21875,5.3125,125600,5.3125,5.25,3.9009714126586914
15-11-1994,5.21875,5.25,166400,5.28125,5.28125,3.9241907596588135
16-11-1994,5.15625,5.21875,154800,5.25,5.15625,3.831312656402588
17-11-1994,4.90625,5.09375,990400,5.09375,4.96875,3.691988945007324
18-11-1994,4.625,4.90625,1564800,4.90625,4.78125,3.5526692867279053
21-11-1994,4.71875,4.8125,789600,4.84375,4.75,3.5294506549835205
22-11-1994,4.625,4.6875,559600,4.71875,4.6875,3.4830095767974854
23-11-1994,4.5,4.71875,952400,4.71875,4.59375,3.413348913192749
25-11-1994,4.53125,4.5625,45600,4.59375,4.53125,3.366909980773926
28-11-1994,4.46875,4.59375,1295600,4.59375,4.53125,3.366909980773926
29-11-1994,4.46875,4.53125,1277200,4.625,4.59375,3.413348913192749
30-11-1994,4.53125,4.625,410400,4.625,4.53125,3.366909980773926
01-12-1994,4.5,4.53125,507600,4.65625,4.625,3.436570167541504
02-12-1994,4.625,4.625,588000,4.6875,4.625,3.436570167541504
05-12-1994,4.375,4.59375,1013600,4.65625,4.375,3.250810146331787
06-12-1994,4.375,4.375,664400,4.4375,4.375,3.250810146331787
07-12-1994,4.34375,4.375,218400,4.5625,4.5625,3.3901290893554688
08-12-1994,4.53125,4.53125,552800,4.8125,4.6875,3.4830095767974854
09-12-1994,4.5625,4.625,588400,4.625,4.59375,3.413348913192749
12-12-1994,4.625,4.625,519200,4.6875,4.65625,3.459789991378784
13-12-1994,4.65625,4.65625,408000,4.78125,4.75,3.5294506549835205
14-12-1994,4.78125,4.78125,529200,4.96875,4.9375,3.668771266937256
15-12-1994,4.8125,4.96875,116000,4.96875,4.84375,3.5991108417510986
16-12-1994,4.8125,4.84375,312800,4.875,4.84375,3.5991108417510986
19-12-1994,4.75,4.84375,426800,4.84375,4.8125,3.575889825820923
20-12-1994,4.625,4.75,305200,4.8125,4.65625,3.459789991378784
21-12-1994,4.59375,4.6875,634400,4.6875,4.625,3.436570167541504
22-12-1994,4.53125,4.65625,284000,4.65625,4.53125,3.366909980773926
23-12-1994,4.53125,4.5625,29600,4.59375,4.5625,3.3901290893554688
27-12-1994,4.4375,4.59375,209600,4.59375,4.5,3.3436903953552246
28-12-1994,4.5,4.5,228800,4.59375,4.59375,3.413348913192749
29-12-1994,4.65625,4.65625,221200,4.8125,4.71875,3.5062291622161865
30-12-1994,4.6875,4.71875,150400,4.78125,4.6875,3.4830095767974854
03-01-1995,4.65625,4.75,129600,4.78125,4.75,3.5294506549835205
04-01-1995,4.6875,4.75,68400,4.8125,4.71875,3.5062291622161865
05-01-1995,4.59375,4.65625,260000,4.6875,4.65625,3.459789991378784
06-01-1995,4.5,4.6875,404800,4.6875,4.5625,3.3901290893554688
09-01-1995,4.46875,4.53125,613600,4.5625,4.46875,3.3259363174438477
10-01-1995,4.3125,4.4375,289600,4.4375,4.3125,3.2096455097198486
11-01-1995,4.3125,4.3125,124800,4.40625,4.40625,3.2794196605682373
12-01-1995,4.3125,4.375,374400,4.4375,4.3125,3.2096455097198486
13-01-1995,4.28125,4.3125,66800,4.40625,4.375,3.2561628818511963
16-01-1995,4.28125,4.3125,480800,4.328125,4.3125,3.2096455097198486
17-01-1995,4.3125,4.3125,437600,4.4375,4.40625,3.2794196605682373
18-01-1995,4.40625,4.40625,606000,4.59375,4.5625,3.3957102298736572
19-01-1995,4.5,4.5625,248000,4.5625,4.5,3.3491973876953125
20-01-1995,4.5,4.53125,76400,4.53125,4.53125,3.372453451156616
23-01-1995,4.375,4.46875,128800,4.5,4.375,3.2561628818511963
24-01-1995,4.375,4.375,345600,4.5625,4.53125,3.372453451156616
25-01-1995,4.46875,4.53125,129600,4.53125,4.5,3.3491973876953125
26-01-1995,4.5,4.5,145200,4.625,4.625,3.4422264099121094
27-01-1995,4.5,4.5625,512000,4.59375,4.53125,3.372453451156616
30-01-1995,4.4375,4.53125,193200,4.53125,4.46875,3.3259363174438477
31-01-1995,4.4375,4.4375,186400,4.53125,4.4375,3.302677869796753
01-02-1995,4.4375,4.4375,46000,4.5,4.46875,3.3259363174438477
02-02-1995,4.4375,4.46875,41600,4.5,4.46875,3.3259363174438477
03-02-1995,4.4375,4.5,243600,4.53125,4.5,3.3491973876953125
06-02-1995,4.5625,4.625,651200,4.8125,4.75,3.5352628231048584
07-02-1995,4.6875,4.8125,437200,4.8125,4.6875,3.4887423515319824
08-02-1995,4.71875,4.71875,549600,4.8125,4.75,3.5352628231048584
09-02-1995,4.6875,4.78125,278800,4.78125,4.6875,3.4887423515319824
10-02-1995,4.6875,4.71875,243600,4.78125,4.78125,3.558518648147583
13-02-1995,4.8125,4.8125,264800,4.90625,4.84375,3.6050357818603516
14-02-1995,4.75,4.84375,137600,4.84375,4.84375,3.6050357818603516
15-02-1995,4.8125,4.84375,277200,4.96875,4.9375,3.674811363220215
16-02-1995,4.9375,4.9375,477600,5.03125,5.0,3.721327066421509
17-02-1995,5.0,5.0,261200,5.125,5.125,3.8143606185913086
21-02-1995,5.09375,5.125,92400,5.125,5.125,3.8143606185913086
22-02-1995,5.0625,5.09375,214400,5.125,5.09375,3.7911036014556885
23-02-1995,5.0625,5.125,348800,5.15625,5.15625,3.837620735168457
24-02-1995,5.09375,5.15625,281200,5.15625,5.125,3.8143606185913086
27-02-1995,5.09375,5.125,381600,5.15625,5.15625,3.837620735168457
28-02-1995,5.15625,5.1875,322400,5.21875,5.21875,3.8841354846954346
01-03-1995,5.15625,5.1875,70800,5.1875,5.15625,3.837620735168457
02-03-1995,5.15625,5.15625,218800,5.25,5.25,3.907392978668213
03-03-1995,5.21875,5.25,259600,5.28125,5.25,3.907392978668213
06-03-1995,5.15625,5.25,236400,5.25,5.21875,3.8841354846954346
07-03-1995,5.125,5.25,405200,5.25,5.125,3.8143606185913086
08-03-1995,5.125,5.15625,442800,5.28125,5.21875,3.8841354846954346
09-03-1995,5.1875,5.25,179600,5.28125,5.28125,3.930652141571045
10-03-1995,5.15625,5.25,170400,5.25,5.15625,3.837620735168457
13-03-1995,5.15625,5.1875,100800,5.21875,5.1875,3.8608767986297607
14-03-1995,5.1875,5.1875,101600,5.25,5.25,3.907392978668213
15-03-1995,5.25,5.25,317200,5.34375,5.3125,3.9539096355438232
16-03-1995,5.28125,5.28125,635600,5.5,5.4375,4.046942710876465
17-03-1995,5.3125,5.40625,492800,5.5,5.4375,4.046942710876465
20-03-1995,5.28125,5.40625,426800,5.5,5.34375,3.9771671295166016
21-03-1995,5.25,5.3125,159600,5.3125,5.25,3.907392978668213
22-03-1995,5.28125,5.3125,349200,5.375,5.3125,3.9539096355438232
23-03-1995,5.3125,5.34375,279600,5.4375,5.40625,4.023684978485107
24-03-1995,5.28125,5.40625,696000,5.40625,5.3125,3.9539096355438232
27-03-1995,5.3125,5.34375,314400,5.5,5.5,4.0934600830078125
28-03-1995,5.5,5.5,268800,5.5625,5.5625,4.139974117279053
29-03-1995,5.5625,5.5625,458000,5.6875,5.625,4.186492443084717
30-03-1995,5.65625,5.65625,414400,5.875,5.875,4.372560977935791
31-03-1995,5.90625,5.90625,1336800,6.21875,6.15625,4.581885814666748
03-04-1995,5.96875,6.15625,1253600,6.15625,5.96875,4.442334175109863
04-04-1995,5.84375,5.96875,666000,5.96875,5.875,4.372560977935791
05-04-1995,5.84375,5.875,1044800,5.96875,5.90625,4.395817756652832
06-04-1995,5.71875,5.875,704000,5.875,5.71875,4.256267547607422
07-04-1995,5.625,5.6875,227600,5.75,5.625,4.191991806030273
10-04-1995,5.59375,5.59375,525600,5.75,5.75,4.285145282745361
11-04-1995,5.6875,5.78125,668400,5.78125,5.75,4.285145282745361
12-04-1995,5.71875,5.75,110400,5.78125,5.78125,4.308435440063477
13-04-1995,5.75,5.8125,191600,5.875,5.75,4.285145282745361
17-04-1995,5.75,5.78125,133200,5.8125,5.75,4.285145282745361
18-04-1995,5.5625,5.75,805200,5.75,5.5625,4.145412445068359
19-04-1995,5.53125,5.59375,182400,5.625,5.625,4.191991806030273
20-04-1995,5.625,5.625,356000,5.78125,5.78125,4.308435440063477
21-04-1995,5.8125,5.8125,1894000,6.1875,6.09375,4.541324615478516
24-04-1995,5.9375,6.125,940800,6.1875,5.9375,4.4248809814453125
25-04-1995,5.84375,5.875,103200,5.90625,5.84375,4.355011940002441
26-04-1995,5.71875,5.875,144000,5.875,5.78125,4.308435440063477
27-04-1995,5.65625,5.78125,390800,5.78125,5.65625,4.2152814865112305
28-04-1995,5.6875,5.71875,266400,5.71875,5.71875,4.261857986450195
01-05-1995,5.71875,5.75,529200,5.78125,5.75,4.285145282745361
02-05-1995,5.6875,5.75,406400,5.75,5.75,4.285145282745361
03-05-1995,5.75,5.75,199600,5.8125,5.75,4.285145282745361
04-05-1995,5.6875,5.75,215200,5.75,5.71875,4.261857986450195
05-05-1995,5.65625,5.6875,289200,5.75,5.65625,4.2152814865112305
08-05-1995,5.625,5.65625,224000,5.6875,5.65625,4.2152814865112305
09-05-1995,5.625,5.65625,509200,5.8125,5.8125,4.331725120544434
10-05-1995,5.78125,5.78125,706400,5.9375,5.9375,4.4248809814453125
11-05-1995,5.78125,5.90625,222000,5.90625,5.8125,4.331725120544434
12-05-1995,5.75,5.8125,38800,5.8125,5.78125,4.308435440063477
15-05-1995,5.78125,5.8125,279600,5.875,5.875,4.37830114364624
16-05-1995,5.84375,5.90625,43200,5.9375,5.84375,4.355011940002441
17-05-1995,5.78125,5.84375,295600,5.84375,5.8125,4.331725120544434
18-05-1995,5.65625,5.8125,107600,5.8125,5.71875,4.261857986450195
19-05-1995,5.71875,5.71875,130800,5.75,5.75,4.285145282745361
22-05-1995,5.6875,5.75,64000,5.75,5.6875,4.238568305969238
23-05-1995,5.71875,5.71875,340800,5.90625,5.875,4.37830114364624
24-05-1995,5.84375,5.875,449200,6.09375,6.09375,4.541324615478516
25-05-1995,6.0,6.03125,798400,6.125,6.0625,4.518033981323242
26-05-1995,5.9375,6.0625,177600,6.0625,5.96875,4.44816780090332
30-05-1995,5.9375,5.9375,303600,6.03125,6.03125,4.4947428703308105
31-05-1995,6.0,6.0625,254800,6.0625,6.0625,4.518033981323242
01-06-1995,6.03125,6.0625,26000,6.09375,6.03125,4.4947428703308105
02-06-1995,5.9375,6.0625,201600,6.09375,5.96875,4.44816780090332
05-06-1995,5.96875,6.0,137600,6.0,6.0,4.471458435058594
06-06-1995,5.875,6.0,53200,6.0,5.90625,4.401589870452881
07-06-1995,5.8125,5.9375,307600,5.9375,5.8125,4.331725120544434
08-06-1995,5.75,5.8125,242000,5.8125,5.78125,4.308435440063477
09-06-1995,5.75,5.78125,652000,5.8125,5.78125,4.308435440063477
12-06-1995,5.71875,5.78125,188000,5.78125,5.75,4.285145282745361
13-06-1995,5.6875,5.6875,119200,5.71875,5.71875,4.261857986450195
14-06-1995,5.71875,5.78125,300400,5.78125,5.78125,4.308435440063477
15-06-1995,5.71875,5.75,186800,5.8125,5.8125,4.331725120544434
16-06-1995,5.6875,5.8125,190000,5.8125,5.6875,4.238568305969238
19-06-1995,5.59375,5.65625,399600,5.71875,5.6875,4.238568305969238
20-06-1995,5.34375,5.71875,788000,5.71875,5.34375,3.982389450073242
21-06-1995,5.1875,5.34375,494400,5.34375,5.21875,3.889235258102417
22-06-1995,5.0625,5.21875,762800,5.21875,5.15625,3.842661142349243
23-06-1995,5.1875,5.1875,2558400,5.34375,5.3125,3.9591028690338135
26-06-1995,5.25,5.28125,352400,5.375,5.34375,3.982389450073242
27-06-1995,5.3125,5.3125,496800,5.4375,5.40625,4.028971195220947
28-06-1995,5.21875,5.375,1011200,5.375,5.25,3.9125258922576904
29-06-1995,5.1875,5.25,250400,5.25,5.1875,3.8659465312957764
30-06-1995,5.21875,5.21875,653600,5.4375,5.4375,4.052257061004639
03-07-1995,5.34375,5.40625,317600,5.46875,5.46875,4.075546741485596
05-07-1995,5.28125,5.4375,124000,5.4375,5.28125,3.9358131885528564
06-07-1995,5.21875,5.25,680800,5.28125,5.25,3.9125258922576904
07-07-1995,5.21875,5.25,272400,5.25,5.25,3.9125258922576904
10-07-1995,5.125,5.28125,638400,5.3125,5.125,3.819370985031128
11-07-1995,5.0,5.125,582000,5.28125,5.15625,3.842661142349243
12-07-1995,5.1875,5.1875,335600,5.28125,5.25,3.9182240962982178
13-07-1995,5.21875,5.375,817600,5.4375,5.21875,3.8949034214019775
14-07-1995,5.15625,5.25,286000,5.28125,5.1875,3.871577024459839
17-07-1995,5.15625,5.1875,460400,5.25,5.21875,3.8949034214019775
18-07-1995,5.21875,5.21875,77600,5.28125,5.28125,3.9415454864501953
19-07-1995,5.1875,5.25,132000,5.28125,5.25,3.9182240962982178
20-07-1995,5.25,5.25,379200,5.375,5.28125,3.9415454864501953
21-07-1995,5.21875,5.28125,248000,5.375,5.34375,3.9881911277770996
24-07-1995,5.3125,5.3125,176400,5.40625,5.375,4.011516571044922
25-07-1995,5.40625,5.40625,344000,5.46875,5.4375,4.058160305023193
26-07-1995,5.34375,5.40625,244000,5.40625,5.34375,3.9881911277770996
27-07-1995,5.21875,5.28125,758000,5.375,5.28125,3.9415454864501953
28-07-1995,5.25,5.3125,111600,5.375,5.375,4.011516571044922
31-07-1995,5.34375,5.34375,217200,5.4375,5.40625,4.034840106964111
01-08-1995,5.1875,5.375,532800,5.375,5.21875,3.8949034214019775
02-08-1995,5.1875,5.21875,302000,5.25,5.21875,3.8949034214019775
03-08-1995,5.125,5.1875,552400,5.34375,5.34375,3.9881911277770996
04-08-1995,5.28125,5.34375,558800,5.34375,5.34375,3.9881911277770996
07-08-1995,5.34375,5.375,101600,5.40625,5.375,4.011516571044922
08-08-1995,5.34375,5.40625,305200,5.4375,5.34375,3.9881911277770996
09-08-1995,5.3125,5.40625,703200,5.40625,5.3125,3.9648690223693848
10-08-1995,5.1875,5.3125,166000,5.34375,5.1875,3.871577024459839
11-08-1995,5.15625,5.15625,349600,5.3125,5.3125,3.9648690223693848
14-08-1995,5.25,5.34375,134400,5.34375,5.25,3.9182240962982178
15-08-1995,5.25,5.3125,108800,5.34375,5.25,3.9182240962982178
16-08-1995,5.125,5.21875,242000,5.21875,5.21875,3.8949034214019775
17-08-1995,5.1875,5.1875,371600,5.3125,5.28125,3.9415454864501953
18-08-1995,5.28125,5.28125,542400,5.5,5.40625,4.034840106964111
21-08-1995,5.40625,5.46875,575600,5.5,5.40625,4.034840106964111
22-08-1995,5.4375,5.4375,362400,5.53125,5.53125,4.128128528594971
23-08-1995,5.5625,5.5625,317600,5.71875,5.625,4.198097229003906
24-08-1995,5.46875,5.59375,2007200,5.625,5.5,4.104806423187256
25-08-1995,5.5,5.5,160000,5.53125,5.5,4.104806423187256
28-08-1995,5.46875,5.5,280000,5.5625,5.53125,4.128128528594971
29-08-1995,5.5,5.53125,56400,5.5625,5.53125,4.128128528594971
30-08-1995,5.625,5.625,290400,5.65625,5.65625,4.221421241760254
31-08-1995,5.6875,5.6875,116800,5.84375,5.8125,4.338034152984619
01-09-1995,5.84375,5.84375,431200,5.96875,5.96875,4.454646587371826
05-09-1995,5.90625,5.96875,545200,6.03125,6.03125,4.501291751861572
06-09-1995,5.90625,5.96875,415600,6.0,6.0,4.477971076965332
07-09-1995,5.78125,6.0,284000,6.03125,6.03125,4.501291751861572
08-09-1995,5.9375,6.03125,248000,6.09375,5.9375,4.431326389312744
11-09-1995,5.9375,5.96875,230800,6.03125,6.03125,4.501291751861572
12-09-1995,5.90625,6.0,312400,6.15625,6.15625,4.594583988189697
13-09-1995,6.03125,6.125,547600,6.125,6.0625,4.524615287780762
14-09-1995,5.9375,6.03125,348000,6.09375,6.09375,4.547940254211426
15-09-1995,6.0625,6.0625,221200,6.1875,6.1875,4.6179070472717285
18-09-1995,6.125,6.15625,490000,6.34375,6.21875,4.641229152679443
19-09-1995,6.0,6.15625,504800,6.1875,6.15625,4.594583988189697
20-09-1995,6.0,6.125,284800,6.125,6.0,4.477971076965332
21-09-1995,5.9375,6.0625,451200,6.0625,6.03125,4.501291751861572
22-09-1995,5.78125,6.03125,143600,6.03125,5.875,4.384677886962891
25-09-1995,5.75,5.84375,183200,5.84375,5.78125,4.3147101402282715
26-09-1995,5.65625,5.78125,232000,5.78125,5.65625,4.221421241760254
27-09-1995,5.625,5.6875,229200,5.75,5.75,4.291384696960449
28-09-1995,5.625,5.8125,263600,5.96875,5.625,4.198097229003906
29-09-1995,5.4375,5.59375,635600,5.59375,5.4375,4.058160305023193
02-10-1995,5.4375,5.46875,548400,5.6875,5.59375,4.174774646759033
03-10-1995,5.5625,5.5625,304400,5.6875,5.65625,4.221421241760254
04-10-1995,5.5625,5.625,230800,5.65625,5.65625,4.221421241760254
05-10-1995,5.5,5.625,76800,5.625,5.53125,4.128128528594971
06-10-1995,5.5,5.5,259200,5.5625,5.5625,4.151449203491211
09-10-1995,5.5,5.59375,48000,5.59375,5.5,4.104806423187256
10-10-1995,5.375,5.46875,109600,5.46875,5.375,4.011516571044922
11-10-1995,5.34375,5.375,166000,5.40625,5.34375,3.9881911277770996
12-10-1995,5.34375,5.375,620000,5.5625,5.5,4.1105756759643555
13-10-1995,5.5,5.5,227200,5.59375,5.53125,4.133931636810303
16-10-1995,5.40625,5.53125,188800,5.53125,5.46875,4.087221145629883
17-10-1995,5.40625,5.4375,398400,5.5,5.5,4.1105756759643555
18-10-1995,5.25,5.4375,1966400,5.46875,5.25,3.923731565475464
19-10-1995,5.21875,5.21875,1503600,5.3125,5.21875,3.9003758430480957
20-10-1995,5.125,5.25,333600,5.25,5.125,3.8303096294403076
23-10-1995,5.0,5.15625,608000,5.15625,5.0,3.736887216567993
24-10-1995,4.90625,5.0,1186800,5.0,4.9375,3.6901752948760986
25-10-1995,4.71875,4.9375,658400,4.9375,4.71875,3.526686906814575
26-10-1995,4.6875,4.75,439600,4.8125,4.71875,3.526686906814575
27-10-1995,4.71875,4.71875,352000,4.875,4.875,3.643462657928467
30-10-1995,4.9375,4.9375,646800,5.0,4.96875,3.713529586791992
31-10-1995,4.96875,5.0,314800,5.03125,5.0,3.736887216567993
01-11-1995,5.0,5.0,390800,5.03125,5.0,3.736887216567993
02-11-1995,4.9375,4.96875,42800,5.0,4.9375,3.6901752948760986
03-11-1995,4.875,4.875,165600,4.96875,4.96875,3.713529586791992
06-11-1995,4.90625,4.96875,63600,4.96875,4.90625,3.6668200492858887
07-11-1995,4.9375,4.9375,476400,5.03125,5.03125,3.760244131088257
08-11-1995,4.875,4.96875,907200,5.0,5.0,3.736887216567993
09-11-1995,5.03125,5.09375,1176400,5.15625,5.03125,3.760244131088257
10-11-1995,4.90625,5.03125,550000,5.03125,4.90625,3.6668200492858887
13-11-1995,4.9375,4.96875,446800,5.09375,5.09375,3.806955099105835
14-11-1995,4.9375,5.03125,1045600,5.0625,4.96875,3.713529586791992
15-11-1995,4.96875,4.96875,228000,5.03125,5.0,3.736887216567993
16-11-1995,5.03125,5.03125,1046400,5.4375,5.375,4.017155647277832
17-11-1995,5.375,5.40625,906800,5.40625,5.40625,4.040509223937988
20-11-1995,5.1875,5.40625,585600,5.40625,5.1875,3.8770205974578857
21-11-1995,5.1875,5.21875,363200,5.375,5.34375,3.993798017501831
22-11-1995,5.34375,5.375,432800,5.40625,5.40625,4.040509223937988
24-11-1995,5.3125,5.40625,229200,5.40625,5.3125,3.9704430103302
27-11-1995,5.125,5.21875,851200,5.21875,5.1875,3.8770205974578857
28-11-1995,5.1875,5.1875,315200,5.28125,5.25,3.923731565475464
29-11-1995,5.21875,5.28125,28800,5.28125,5.21875,3.9003758430480957
30-11-1995,5.1875,5.28125,311200,5.28125,5.25,3.923731565475464
01-12-1995,5.25,5.25,308400,5.34375,5.28125,3.947087049484253
04-12-1995,5.125,5.3125,1056000,5.3125,5.3125,3.9704430103302
05-12-1995,5.3125,5.3125,461200,5.375,5.375,4.017155647277832
06-12-1995,5.40625,5.40625,685200,5.4375,5.4375,4.0638628005981445
07-12-1995,5.4375,5.4375,720400,5.5,5.5,4.1105756759643555
08-12-1995,5.4375,5.46875,18838800,5.65625,5.65625,4.227354049682617
11-12-1995,5.71875,5.8125,5631200,5.875,5.875,4.390841960906982
12-12-1995,5.8125,5.875,2874000,5.90625,5.875,4.390841960906982
13-12-1995,5.84375,5.875,3176800,6.09375,6.0,4.484263896942139
14-12-1995,5.90625,6.03125,2280000,6.09375,5.90625,4.414196968078613
15-12-1995,5.875,6.1875,1721200,6.21875,6.0,4.484263896942139
18-12-1995,5.8125,5.9375,974000,5.96875,5.96875,4.460908889770508
19-12-1995,5.875,5.96875,876000,6.0625,6.0625,4.5309739112854
20-12-1995,6.03125,6.0625,2001200,6.21875,6.03125,4.507619380950928
21-12-1995,6.0,6.03125,1896800,6.125,6.03125,4.507619380950928
22-12-1995,5.9375,6.09375,1115600,6.15625,6.03125,4.507619380950928
26-12-1995,6.03125,6.09375,490800,6.09375,6.03125,4.507619380950928
27-12-1995,5.9375,6.03125,582000,6.03125,5.9375,4.437553882598877
28-12-1995,5.90625,5.90625,1150800,6.15625,6.15625,4.601041793823242
29-12-1995,5.9375,6.1875,677200,6.1875,6.0,4.484263896942139
02-01-1996,6.03125,6.0625,579600,6.125,6.09375,4.554330825805664
03-01-1996,5.875,6.125,1148000,6.125,5.96875,4.460908889770508
04-01-1996,5.9375,5.96875,1644000,6.0625,5.96875,4.460908889770508
05-01-1996,5.9375,5.9375,680800,6.09375,6.0625,4.5309739112854
08-01-1996,6.0625,6.0625,779200,6.125,6.125,4.577687740325928
09-01-1996,5.9375,6.15625,948400,6.15625,6.0,4.484263896942139
10-01-1996,5.84375,6.0,516400,6.03125,5.96875,4.460908889770508
11-01-1996,5.6875,5.8125,1618400,5.8125,5.78125,4.326210975646973
12-01-1996,5.75,5.75,555200,5.8125,5.8125,4.349596977233887
15-01-1996,5.75,5.875,1159200,5.875,5.75,4.302825927734375
16-01-1996,5.71875,5.75,1683200,5.8125,5.75,4.302825927734375
17-01-1996,5.59375,5.75,2281600,5.78125,5.75,4.302825927734375
18-01-1996,5.71875,5.75,504000,5.78125,5.78125,4.326210975646973
19-01-1996,5.75,5.8125,803200,5.84375,5.75,4.302825927734375
22-01-1996,5.78125,5.78125,545600,5.875,5.875,4.396364212036133
23-01-1996,5.78125,5.84375,426400,5.90625,5.78125,4.326210975646973
24-01-1996,5.78125,5.8125,539600,5.96875,5.875,4.396364212036133
25-01-1996,5.875,5.875,693600,5.96875,5.9375,4.443138599395752
26-01-1996,5.875,5.90625,1880000,5.90625,5.875,4.396364212036133
29-01-1996,5.875,5.90625,1636800,6.0,6.0,4.48990535736084
30-01-1996,5.96875,6.0,970800,6.03125,6.03125,4.51329231262207
31-01-1996,5.96875,6.03125,650000,6.125,6.09375,4.560060024261475
01-02-1996,6.125,6.125,2182400,6.3125,6.21875,4.653601169586182
02-02-1996,6.125,6.15625,1204000,6.25,6.15625,4.60683012008667
05-02-1996,6.0625,6.09375,923200,6.15625,6.09375,4.560060024261475
06-02-1996,6.03125,6.09375,938400,6.125,6.03125,4.51329231262207
07-02-1996,6.0625,6.09375,838800,6.15625,6.125,4.58344841003418
08-02-1996,6.125,6.125,705600,6.25,6.1875,4.630213260650635
09-02-1996,6.125,6.1875,1770400,6.28125,6.25,4.676985740661621
12-02-1996,6.15625,6.25,4923200,6.65625,6.53125,4.887449264526367
13-02-1996,6.25,6.59375,3442800,6.59375,6.34375,4.747138977050781
14-02-1996,6.375,6.375,1570000,6.625,6.5625,4.910834312438965
15-02-1996,6.53125,6.53125,1637600,6.9375,6.90625,5.16806697845459
16-02-1996,6.65625,7.125,2182000,7.125,6.75,5.051146507263184
20-02-1996,6.5625,6.625,421200,6.71875,6.625,4.957602024078369
21-02-1996,6.53125,6.5625,1553600,6.71875,6.71875,5.027756690979004
22-02-1996,6.59375,6.6875,1300800,6.75,6.6875,5.004374980926514
23-02-1996,6.5625,6.65625,660000,6.75,6.71875,5.027756690979004
26-02-1996,6.5625,6.625,556400,6.65625,6.59375,4.934218883514404
27-02-1996,6.5,6.53125,532800,6.625,6.59375,4.934218883514404
28-02-1996,6.40625,6.59375,2225600,6.71875,6.40625,4.793910026550293
29-02-1996,6.1875,6.4375,956000,6.4375,6.25,4.676985740661621
01-03-1996,6.25,6.25,402800,6.34375,6.25,4.676985740661621
04-03-1996,6.1875,6.25,809200,6.34375,6.3125,4.7237548828125
05-03-1996,6.15625,6.25,574000,6.25,6.25,4.676985740661621
06-03-1996,6.1875,6.21875,830000,6.40625,6.40625,4.793910026550293
07-03-1996,6.3125,6.375,1132000,6.40625,6.375,4.770526885986328
08-03-1996,6.1875,6.1875,278400,6.28125,6.21875,4.653601169586182
11-03-1996,6.09375,6.1875,1366400,6.1875,6.15625,4.60683012008667
12-03-1996,6.09375,6.125,1108400,6.15625,6.125,4.58344841003418
13-03-1996,6.125,6.125,1038800,6.1875,6.1875,4.630213260650635
14-03-1996,6.25,6.25,2724800,6.40625,6.3125,4.7237548828125
15-03-1996,6.0,6.25,1051600,6.25,6.0625,4.536675930023193
18-03-1996,6.0625,6.09375,4547200,6.375,6.375,4.770526885986328
19-03-1996,6.34375,6.375,473600,6.4375,6.34375,4.747138977050781
20-03-1996,6.1875,6.375,223600,6.375,6.1875,4.630213260650635
21-03-1996,6.125,6.1875,936800,6.28125,6.125,4.58344841003418
22-03-1996,6.09375,6.15625,1019600,6.1875,6.09375,4.560060024261475
25-03-1996,6.0625,6.0625,907200,6.28125,6.28125,4.700371742248535
26-03-1996,6.25,6.28125,216800,6.3125,6.3125,4.7237548828125
27-03-1996,6.40625,6.5,1842000,6.59375,6.53125,4.887449264526367
28-03-1996,6.53125,6.53125,1270000,6.65625,6.65625,4.9809889793396
29-03-1996,6.5625,6.59375,1343600,6.625,6.59375,4.934218883514404
01-04-1996,6.5625,6.59375,752800,6.6875,6.6875,5.004374980926514
02-04-1996,6.65625,6.71875,1116400,6.875,6.84375,5.121297359466553
03-04-1996,6.71875,6.78125,1519600,6.96875,6.9375,5.1914567947387695
04-04-1996,6.75,6.9375,796800,6.9375,6.875,5.144683837890625
08-04-1996,6.625,6.84375,1262800,6.84375,6.8125,5.0979132652282715
09-04-1996,6.8125,6.8125,923200,6.90625,6.875,5.144683837890625
10-04-1996,6.78125,6.8125,1358000,6.96875,6.9375,5.1914567947387695
11-04-1996,6.84375,6.875,932000,6.9375,6.875,5.150251865386963
12-04-1996,6.59375,6.875,1120000,6.875,6.65625,4.986380577087402
15-04-1996,6.5625,6.59375,948000,6.78125,6.75,5.056612968444824
16-04-1996,6.6875,6.78125,846000,6.78125,6.75,5.056612968444824
17-04-1996,6.65625,6.75,1494800,6.75,6.6875,5.009792327880859
18-04-1996,6.5,6.6875,1113200,6.6875,6.53125,4.892739295959473
19-04-1996,6.5,6.5,884400,6.6875,6.65625,4.986380577087402
22-04-1996,6.65625,6.65625,2457600,6.90625,6.8125,5.103431701660156
23-04-1996,6.78125,6.9375,1053200,7.0,6.90625,5.1736626625061035
24-04-1996,6.90625,6.90625,1069200,7.15625,7.03125,5.267303943634033
25-04-1996,6.9375,6.96875,536800,7.0,6.9375,5.197072505950928
26-04-1996,6.78125,6.875,486400,6.9375,6.78125,5.08002233505249
29-04-1996,6.71875,6.71875,705200,6.875,6.78125,5.08002233505249
30-04-1996,6.59375,6.8125,779600,6.875,6.625,4.962970733642578
01-05-1996,6.5,6.625,808400,6.75,6.5,4.869327068328857
02-05-1996,6.46875,6.5625,373600,6.59375,6.5625,4.916147232055664
03-05-1996,6.53125,6.625,680000,6.625,6.625,4.962970733642578
06-05-1996,6.5625,6.59375,504400,6.65625,6.5625,4.916147232055664
07-05-1996,6.125,6.625,1395600,6.65625,6.21875,4.658638954162598
08-05-1996,6.1875,6.25,620400,6.34375,6.25,4.682047367095947
09-05-1996,6.25,6.25,332000,6.375,6.375,4.775689125061035
10-05-1996,6.25,6.375,818400,6.40625,6.3125,4.728865623474121
13-05-1996,6.21875,6.25,796000,6.3125,6.25,4.682047367095947
14-05-1996,6.15625,6.25,1208800,6.28125,6.15625,4.61181640625
15-05-1996,6.09375,6.1875,2372400,6.3125,6.3125,4.728865623474121
16-05-1996,6.25,6.34375,379600,6.34375,6.28125,4.705456733703613
17-05-1996,6.1875,6.25,1017600,6.28125,6.25,4.682047367095947
20-05-1996,6.25,6.25,425600,6.375,6.34375,4.752277374267578
21-05-1996,6.3125,6.3125,2660400,6.46875,6.4375,4.822507381439209
22-05-1996,6.4375,6.4375,552000,6.5,6.5,4.869327068328857
23-05-1996,6.53125,6.5625,1154800,6.75,6.5625,4.916147232055664
24-05-1996,6.4375,6.5,1701200,6.53125,6.5,4.869327068328857
28-05-1996,6.359375,6.53125,554000,6.53125,6.4375,4.822507381439209
29-05-1996,6.3125,6.40625,613600,6.40625,6.375,4.775689125061035
30-05-1996,6.25,6.375,604000,6.375,6.3125,4.728865623474121
31-05-1996,6.25,6.34375,493200,6.375,6.3125,4.728865623474121
03-06-1996,6.28125,6.3125,211200,6.3125,6.3125,4.728865623474121
04-06-1996,6.375,6.40625,654800,6.46875,6.375,4.775689125061035
05-06-1996,6.40625,6.4375,679600,6.46875,6.4375,4.822507381439209
06-06-1996,6.25,6.4375,278800,6.4375,6.28125,4.705456733703613
07-06-1996,6.15625,6.21875,702800,6.34375,6.34375,4.752277374267578
10-06-1996,6.3125,6.34375,241200,6.34375,6.3125,4.728865623474121
11-06-1996,6.28125,6.3125,761600,6.375,6.3125,4.728865623474121
12-06-1996,6.25,6.3125,1385200,6.3125,6.28125,4.705456733703613
13-06-1996,6.09375,6.28125,985600,6.28125,6.1875,4.635225772857666
14-06-1996,6.15625,6.1875,1093200,6.21875,6.15625,4.61181640625
17-06-1996,6.0625,6.09375,586400,6.125,6.0625,4.541583061218262
18-06-1996,5.96875,6.0,1450000,6.125,5.96875,4.471354007720947
19-06-1996,6.03125,6.03125,1416800,6.15625,6.0625,4.541583061218262
20-06-1996,6.0625,6.09375,1258400,6.125,6.09375,4.564996242523193
21-06-1996,6.0,6.09375,650800,6.09375,6.0,4.4947638511657715
24-06-1996,5.96875,6.03125,948000,6.0625,6.0,4.4947638511657715
25-06-1996,5.96875,6.03125,2754000,6.25,6.15625,4.61181640625
26-06-1996,6.21875,6.21875,5256400,6.625,6.625,4.962970733642578
27-06-1996,6.53125,6.59375,4884000,6.75,6.75,5.056612968444824
28-06-1996,6.78125,6.8125,5409200,6.96875,6.96875,5.220485210418701
01-07-1996,6.90625,6.96875,3778800,7.28125,7.28125,5.454583644866943
02-07-1996,7.125,7.15625,2342000,7.25,7.21875,5.4077653884887695
03-07-1996,7.125,7.125,1392000,7.21875,7.21875,5.4077653884887695
05-07-1996,7.125,7.21875,753600,7.3125,7.28125,5.454583644866943
08-07-1996,7.1875,7.25,924800,7.3125,7.25,5.431172847747803
09-07-1996,7.25,7.25,2440800,7.5625,7.5,5.618455410003662
10-07-1996,7.46875,7.5,3225600,7.65625,7.5625,5.6652750968933105
11-07-1996,7.125,7.46875,3954400,7.59375,7.1875,5.389698028564453
12-07-1996,7.125,7.15625,1191200,7.21875,7.15625,5.366266250610352
15-07-1996,7.09375,7.125,1718400,7.34375,7.125,5.34283447265625
16-07-1996,6.5625,7.0625,1854400,7.09375,6.65625,4.991331100463867
17-07-1996,6.6875,6.6875,2270000,6.96875,6.6875,5.014764308929443
18-07-1996,6.65625,6.75,990400,6.8125,6.71875,5.038194179534912
19-07-1996,6.65625,6.6875,1322800,6.71875,6.6875,5.014764308929443
22-07-1996,6.5625,6.6875,1101600,6.6875,6.59375,4.944462776184082
23-07-1996,6.53125,6.625,2303200,6.8125,6.8125,5.108495235443115
24-07-1996,6.625,6.75,327600,6.75,6.625,4.967895030975342
25-07-1996,6.375,6.625,762800,6.78125,6.375,4.780433177947998
26-07-1996,6.40625,6.40625,462800,6.5625,6.53125,4.897598743438721
29-07-1996,6.4375,6.5,676800,6.53125,6.5,4.874162673950195
30-07-1996,6.25,6.46875,1988800,6.53125,6.3125,4.733561992645264
31-07-1996,6.125,6.3125,1733600,6.3125,6.25,4.686694145202637
01-08-1996,6.25,6.25,1422800,6.375,6.3125,4.733561992645264
02-08-1996,6.3125,6.3125,1042800,6.46875,6.46875,4.850728511810303
05-08-1996,6.34375,6.46875,503200,6.59375,6.59375,4.944462776184082
06-08-1996,6.5,6.59375,495200,6.65625,6.65625,4.991331100463867
07-08-1996,6.75,6.75,1542800,6.84375,6.84375,5.131930828094482
08-08-1996,6.75,6.84375,767600,6.875,6.84375,5.131930828094482
09-08-1996,6.71875,6.875,634400,6.875,6.71875,5.038194179534912
12-08-1996,6.625,6.75,167600,6.75,6.625,4.967895030975342
13-08-1996,6.625,6.65625,389600,6.6875,6.625,4.967895030975342
14-08-1996,6.625,6.625,333200,6.65625,6.65625,4.991331100463867
15-08-1996,6.625,6.625,331600,6.75,6.75,5.061628818511963
16-08-1996,6.625,6.6875,329600,6.71875,6.71875,5.038194179534912
19-08-1996,6.625,6.65625,339200,6.78125,6.78125,5.0850653648376465
20-08-1996,6.6875,6.8125,928800,6.8125,6.75,5.061628818511963
21-08-1996,6.59375,6.71875,837600,6.71875,6.65625,4.991331100463867
22-08-1996,6.59375,6.65625,433200,6.6875,6.65625,4.991331100463867
23-08-1996,6.5625,6.59375,228800,6.65625,6.625,4.967895030975342
26-08-1996,6.5625,6.625,488000,6.65625,6.65625,4.991331100463867
27-08-1996,6.5,6.625,669600,6.625,6.5,4.874162673950195
28-08-1996,6.46875,6.5,392800,6.5,6.46875,4.850728511810303
29-08-1996,6.4375,6.46875,499200,6.5,6.46875,4.850728511810303
30-08-1996,6.375,6.4375,160800,6.46875,6.46875,4.850728511810303
03-09-1996,6.5,6.5,1298800,6.59375,6.5625,4.921030521392822
04-09-1996,6.40625,6.53125,356400,6.53125,6.46875,4.850728511810303
05-09-1996,6.375,6.4375,382800,6.5,6.4375,4.827295303344727
06-09-1996,6.3125,6.4375,2431600,6.59375,6.46875,4.850728511810303
09-09-1996,6.40625,6.46875,501200,6.53125,6.5,4.874162673950195
10-09-1996,6.46875,6.5,488400,6.53125,6.46875,4.850728511810303
11-09-1996,6.46875,6.46875,1305600,6.65625,6.5625,4.921030521392822
12-09-1996,6.28125,6.53125,1240800,6.53125,6.3125,4.733561992645264
13-09-1996,6.125,6.3125,1250400,6.3125,6.125,4.592960834503174
16-09-1996,6.03125,6.125,1839600,6.125,6.0625,4.546092987060547
17-09-1996,5.71875,5.875,3505600,5.9375,5.875,4.405492782592773
18-09-1996,5.875,5.90625,2286800,6.09375,6.0,4.499228477478027
19-09-1996,5.96875,5.96875,2160800,6.09375,6.03125,4.52266263961792
20-09-1996,6.03125,6.03125,601200,6.09375,6.03125,4.52266263961792
23-09-1996,6.0,6.0625,1021600,6.0625,6.03125,4.52266263961792
24-09-1996,5.84375,6.0,1552000,6.0625,5.90625,4.428926944732666
25-09-1996,5.78125,5.90625,1691200,6.0,6.0,4.499228477478027
26-09-1996,6.03125,6.03125,856400,6.15625,6.125,4.592960834503174
27-09-1996,6.0,6.0625,1036000,6.09375,6.03125,4.52266263961792
30-09-1996,6.0,6.0,1134400,6.21875,6.21875,4.663262367248535
01-10-1996,6.25,6.25,956400,6.3125,6.3125,4.733561992645264
02-10-1996,6.28125,6.3125,774800,6.40625,6.375,4.780433177947998
03-10-1996,6.28125,6.375,691600,6.375,6.28125,4.710128307342529
04-10-1996,6.28125,6.34375,592000,6.40625,6.28125,4.710128307342529
07-10-1996,6.25,6.28125,1552000,6.4375,6.40625,4.803863048553467
08-10-1996,6.34375,6.40625,1220000,6.46875,6.375,4.780433177947998
09-10-1996,6.25,6.375,772800,6.375,6.3125,4.733561992645264
10-10-1996,5.9375,6.21875,2254800,6.21875,6.0,4.504578113555908
11-10-1996,5.9375,6.0,1258800,6.0625,5.9375,4.4576568603515625
14-10-1996,5.8125,5.9375,2306000,5.96875,5.84375,4.387272357940674
15-10-1996,5.84375,5.875,1424800,6.0,6.0,4.504578113555908
16-10-1996,5.96875,6.0,1880000,6.09375,6.09375,4.5749640464782715
17-10-1996,6.125,6.15625,1636400,6.25,6.25,4.692270755767822
18-10-1996,6.21875,6.25,1060800,6.40625,6.375,4.7861175537109375
21-10-1996,6.25,6.34375,722000,6.375,6.25,4.692270755767822
22-10-1996,6.15625,6.25,1494400,6.3125,6.1875,4.645348072052002
23-10-1996,5.96875,6.15625,2842800,6.15625,6.0,4.504578113555908
24-10-1996,6.0,6.03125,1593200,6.09375,6.0625,4.55150032043457
25-10-1996,6.09375,6.09375,1020000,6.21875,6.21875,4.668809413909912
28-10-1996,6.09375,6.15625,995600,6.1875,6.09375,4.5749640464782715
29-10-1996,6.03125,6.09375,1533600,6.15625,6.15625,4.621886253356934
30-10-1996,6.15625,6.15625,3300400,6.375,6.375,4.7861175537109375
31-10-1996,6.375,6.375,1713200,6.53125,6.4375,4.833037853240967
01-11-1996,6.25,6.4375,1226800,6.46875,6.28125,4.715733051300049
04-11-1996,6.1875,6.25,1135200,6.28125,6.1875,4.645348072052002
05-11-1996,6.1875,6.25,730800,6.25,6.21875,4.668809413909912
06-11-1996,6.125,6.21875,395600,6.21875,6.125,4.598424434661865
07-11-1996,6.0,6.0,1647200,6.0625,6.0,4.504578113555908
08-11-1996,6.0,6.0625,1212400,6.15625,6.15625,4.621886253356934
11-11-1996,6.15625,6.1875,1075600,6.28125,6.25,4.692270755767822
12-11-1996,6.25,6.3125,1186400,6.375,6.25,4.692270755767822
13-11-1996,6.25,6.28125,1387200,6.28125,6.28125,4.715733051300049
14-11-1996,6.28125,6.28125,2227200,6.3125,6.3125,4.739193439483643
15-11-1996,6.21875,6.28125,1321600,6.34375,6.25,4.692270755767822
18-11-1996,6.1875,6.25,682000,6.25,6.25,4.692270755767822
19-11-1996,6.21875,6.25,2281600,6.40625,6.40625,4.809576034545898
20-11-1996,6.5625,6.75,3805200,6.78125,6.78125,5.0911126136779785
